# Angle of attack [rad] 	 Lift coefficient [-] 	 Drag coefficient [-] 	 Moment coefficient [-]
-3.141592653589793116e+00 0.000000000000000000e+00 1.749284044894849899e-02 0.000000000000000000e+00
-3.089232776029963379e+00 8.266791314977059435e-02 1.872833385797939912e-02 1.200000003610469934e-01
-3.036872898470133197e+00 1.653358250598249979e-01 2.202374740959949992e-02 2.399999989225340136e-01
-2.984513020910303460e+00 2.480041924689539989e-01 2.734665940610810086e-02 3.600006586823850108e-01
-2.932153143350473723e+00 3.306758507888220011e-01 4.024094190275429722e-02 3.991361277024499943e-01
-2.879793265790643542e+00 4.133395640463479737e-01 7.292754350957610099e-02 3.978404838049199865e-01
-2.827433388230813804e+00 4.960119907253590088e-01 1.120199860985779949e-01 3.965447033360829932e-01
-2.775073510670984067e+00 5.786708339220679731e-01 1.574441779678590059e-01 4.030999661676349932e-01
-2.722713633111153886e+00 6.613454614835849732e-01 2.085384265294860096e-01 4.253638749547880016e-01
-2.670353755551324149e+00 7.440121002117270343e-01 2.643872530191960224e-01 4.476277176435760063e-01
-2.617993877991494411e+00 8.266791290238849621e-01 3.247602864894559849e-01 4.674057642795150236e-01
-2.565634000431664230e+00 8.678575719501580021e-01 3.893987462783469744e-01 4.623098446257770111e-01
-2.513274122871834493e+00 8.260761000320000491e-01 4.563069432645159851e-01 4.547325840877959879e-01
-2.460914245312004756e+00 7.882209917121210108e-01 5.262637198243049763e-01 4.475228957106580086e-01
-2.408554367752174574e+00 7.512167436795470499e-01 5.973713326685089475e-01 4.429229413944589799e-01
-2.356194490192344837e+00 7.145354141201000209e-01 6.692770313220179901e-01 4.394964477719530138e-01
-2.303834612632515100e+00 6.773260114398870213e-01 7.413919049211270540e-01 4.362024327910590249e-01
-2.251474735072684918e+00 6.384617846821180054e-01 8.125066611407000261e-01 4.355793534430379976e-01
-2.199114857512855181e+00 5.976452711905499982e-01 8.822277574869159533e-01 4.363216696018469842e-01
-2.146754979953025444e+00 5.553959133642260015e-01 9.502085768727149828e-01 4.380664978334239956e-01
-2.094395102393195263e+00 5.105713232798479995e-01 1.014272365843589929e+00 4.399325660004119731e-01
-2.042035224833365525e+00 4.639774171421969795e-01 1.074711732247239926e+00 4.418877814334650211e-01
-1.989675347273535788e+00 4.158255477039879966e-01 1.131439948808349971e+00 4.438887562719360247e-01
-1.937315469713705829e+00 3.659932525129250269e-01 1.183420826420600092e+00 4.458897394080539867e-01
-1.884955592153875870e+00 3.144928121386599829e-01 1.228419928960249985e+00 4.458580324009639995e-01
-1.832595714594046132e+00 2.622031371759719898e-01 1.268165910508419980e+00 4.453672291653599791e-01
-1.780235837034216173e+00 2.093027436696230092e-01 1.302468132716789961e+00 4.444093881570340132e-01
-1.727875959474386214e+00 1.560857606461560076e-01 1.328752502205420072e+00 4.419866515484349723e-01
-1.675516081914556477e+00 1.032759814439530022e-01 1.347503790751390040e+00 4.377190568871119902e-01
-1.623156204354726517e+00 5.116975309437390290e-02 1.360010093314079960e+00 4.328746755364190069e-01
-1.570796326794896558e+00 -2.004417088710889995e-10 1.366193688947729967e+00 4.280299503617289725e-01
-1.518436449235066599e+00 -5.116975278757839724e-02 1.360010093351160076e+00 4.177694804005919749e-01
-1.466076571675236861e+00 -1.032759813015639988e-01 1.347503790795699929e+00 4.075086884438050006e-01
-1.413716694115406902e+00 -1.560857610630780046e-01 1.328752501999499902e+00 3.968136297858619876e-01
-1.361356816555576943e+00 -2.093027440865450062e-01 1.302468132510870014e+00 3.847408736057860157e-01
-1.308996938995747206e+00 -2.622031369635279829e-01 1.268165910651690043e+00 3.715886966743079944e-01
-1.256637061435917246e+00 -3.144928118968949859e-01 1.228419929167340108e+00 3.581272936241460259e-01
-1.204277183876087287e+00 -3.659932528376900196e-01 1.183420826081829969e+00 3.444061560427960078e-01
-1.151917306316257550e+00 -4.158255473395719992e-01 1.131439949188469907e+00 3.295350615181990017e-01
-1.099557428756427591e+00 -4.639774170764069949e-01 1.074711732328470060e+00 3.146639717671220193e-01
-1.047197551196597631e+00 -5.105713234243649534e-01 1.014272365637020057e+00 2.997946765098910005e-01
-9.948376736367678941e-01 -5.553959128887789864e-01 9.502085775521530442e-01 2.849289599176990095e-01
-9.424777960769379348e-01 -5.976452712709240389e-01 8.822277573568879649e-01 2.700648687463529929e-01
-8.901179185171080865e-01 -6.384617849952179958e-01 8.125066605854039947e-01 2.552898873139760050e-01
-8.377580409572782383e-01 -6.773260116313940538e-01 7.413919045461240254e-01 2.406380640192599951e-01
-7.853981633974482790e-01 -7.145354137975860054e-01 6.692770319443660521e-01 2.262258875820410131e-01
-7.330382858376184307e-01 -7.339918584464140139e-01 5.973713326734300111e-01 2.118137427415809904e-01
-6.806784082777884715e-01 -7.571091458421309595e-01 5.262637196905910475e-01 1.833264939569909935e-01
-6.283185307179586232e-01 -7.844247192953299752e-01 4.563069439741159750e-01 1.360021342750880047e-01
-5.759586531581287749e-01 -8.190693792520750138e-01 3.893987460626079922e-01 8.659374877745089349e-02
-5.235987755982988157e-01 -9.397921443688650456e-01 2.929811103628849889e-01 5.680464041887319654e-02
-5.130210225559090897e-01 -9.730638858630490384e-01 2.704329802731780252e-01 5.277850615200530005e-02
-5.024432695135193638e-01 -1.006523510390920029e+00 2.478238049341809912e-01 4.875552762039250115e-02
-4.918655164711295824e-01 -1.040144205203179961e+00 2.251436600762579954e-01 4.473961670368310078e-02
-4.812877634287397455e-01 -1.049027991909790014e+00 2.120729115946299870e-01 4.120857786965730074e-02
-4.707100103863500196e-01 -1.046604361948310080e+00 2.032634417783200087e-01 3.790423696698819872e-02
-4.601322573439602381e-01 -1.043975929302070060e+00 1.944388630298889975e-01 3.466131485035490317e-02
-4.495545043015704567e-01 -1.042387733242359893e+00 1.854629820579400123e-01 3.129404552238140153e-02
-4.389767512591789544e-01 -1.040949589537480069e+00 1.764840477188160117e-01 2.791180142697000099e-02
-4.283989982167891730e-01 -1.040731712580230006e+00 1.675017003949509919e-01 2.452926211705819953e-02
-4.178212451743993916e-01 -1.040960130314660059e+00 1.586175417666099985e-01 2.122259169363779896e-02
-4.072434921320096657e-01 -1.041696118081429923e+00 1.506453148447119972e-01 1.860185409897329931e-02
-3.966657390896198843e-01 -1.042610623557409966e+00 1.426620523826289955e-01 1.598093943602239830e-02
-3.860879860472301028e-01 -1.043779731786989906e+00 1.346603943008899962e-01 1.335967668042450061e-02
-3.755102330048403769e-01 -1.045329924646779984e+00 1.266245645126690134e-01 1.073756997810859995e-02
-3.649324799624505400e-01 -1.046129735698029917e+00 1.186003146223079951e-01 8.112330181358130832e-03
-3.543547269200608141e-01 -1.046806815760449982e+00 1.106482469434809934e-01 5.493932372758829862e-03
-3.437769738776710327e-01 -1.046392208585479988e+00 1.035314716555870013e-01 3.517234390989579847e-03
-3.331992208352812512e-01 -1.044885914008460093e+00 9.724998888461279523e-02 2.214114211459740009e-03
-3.226214677928914698e-01 -1.043379619431449967e+00 9.096850611363900552e-02 9.194191598490739602e-04
-3.120437147505017439e-01 -1.041512810127890098e+00 8.482409801593200627e-02 -2.743708572830619937e-04
-3.014659617081119070e-01 -1.038203941612320103e+00 7.922798872759059807e-02 -1.050522133172860023e-03
-2.908882086657221810e-01 -1.034895073096739893e+00 7.363187943924920376e-02 -1.840506395906420060e-03
-2.803104556233323996e-01 -1.031586204581159905e+00 6.803577015090779556e-02 -2.642636171111430003e-03
-2.697327025809426182e-01 -1.044162907008169938e+00 6.197503328651830096e-02 -2.574796250209889989e-03
-2.591549495385511159e-01 -1.058504673464869983e+00 5.586267111859730128e-02 -2.411894752774330214e-03
-2.485771964961613345e-01 -1.076015238590459999e+00 4.975030895067639874e-02 -2.250927800043120083e-03
-2.379994434537715531e-01 -1.085237747505390038e+00 4.438180583692150072e-02 -2.733918726368670185e-03
-2.274216904113817994e-01 -1.088287898711590040e+00 3.941654461379699714e-02 -3.645460555881959927e-03
-2.168439373689920457e-01 -1.090294592993720002e+00 3.448659283149559801e-02 -4.613773962051309976e-03
-2.062661843266022643e-01 -1.075654388768819913e+00 3.005826672363130087e-02 -7.416572438448549784e-03
-1.956884312842125107e-01 -1.025186622836049999e+00 2.679126411112120118e-02 -1.474565879758480032e-02
-1.851106782418227292e-01 -9.747059259231419803e-01 2.353103166333970001e-02 -2.189266401495660111e-02
-1.745329251994329478e-01 -9.225880419122379772e-01 2.027776483699950116e-02 -2.903956446140119885e-02
-1.639551721570429998e-01 -8.548450961058480235e-01 1.876923077291100042e-02 -3.467187299451789800e-02
-1.533774191146532462e-01 -7.857998950591279508e-01 1.729800004672539873e-02 -3.989755661892199767e-02
-1.427996660722632982e-01 -7.166559410853150514e-01 1.576848313221849984e-02 -4.508118927989619718e-02
-1.322219130298735168e-01 -6.415072469558860124e-01 1.466221096717969935e-02 -5.015551885750479943e-02
-1.216441599874835688e-01 -5.654297474949490088e-01 1.374768561944230034e-02 -5.509955990758370198e-02
-1.110664069450936348e-01 -4.889847461351419788e-01 1.283294819239159945e-02 -6.003474791516159870e-02
-1.004886539027038533e-01 -4.096946209595769828e-01 1.210937519201809968e-02 -6.484826368990459500e-02
-8.991090086031391926e-02 -3.263608786850680232e-01 1.167284728851680081e-02 -6.949605288275059745e-02
-7.933314781792397130e-02 -2.430148505469429954e-01 1.123632508451339988e-02 -7.414883266375779658e-02
-6.875539477553420376e-02 -1.596875919533760069e-01 1.082552976875199996e-02 -7.871992189514949445e-02
-5.817764173314425580e-02 -7.666566509250589967e-02 1.064621118972780035e-02 -8.245857260031459746e-02
-4.759988869075449519e-02 6.378252646350579882e-03 1.046688605668859989e-02 -8.620579373016480640e-02
-3.702213564836454723e-02 8.948291470980679341e-02 1.028755343849119958e-02 -8.990426142661959996e-02
-2.644438260597477622e-02 1.715274902099440113e-01 1.020040785172940043e-02 -9.318612532000450366e-02
-1.586662956358486296e-02 2.521995208003560140e-01 1.014518439132239963e-02 -9.630230616592290460e-02
-5.288876521194919335e-03 3.322560318067619978e-01 1.014024567258970007e-02 -9.917347202319630461e-02
5.288876521194919335e-03 4.124130722069709876e-01 1.016115590623060082e-02 -1.019214928379899993e-01
1.586662956358486296e-02 4.922924512711679967e-01 1.020791594617529927e-02 -1.045468942180469984e-01
2.644438260597477622e-02 5.714139424356460273e-01 1.029563313020990037e-02 -1.069904251529310013e-01
3.702213564836454723e-02 6.502406874425410432e-01 1.039866185370600001e-02 -1.093634649130769965e-01
4.759988869075449519e-02 7.284423570876620291e-01 1.053403528999240051e-02 -1.115830069870149960e-01
5.817764173314425580e-02 8.061889596317100004e-01 1.068995760417870006e-02 -1.137074156154419952e-01
6.875539477553420376e-02 8.835633260555649793e-01 1.086268638920299956e-02 -1.157539957397819980e-01
7.933314781792415171e-02 9.600656834620290292e-01 1.107535992883370082e-02 -1.176375933811440039e-01
8.991090086031391926e-02 1.036039866023799938e+00 1.132141791588009948e-02 -1.194439968381389994e-01
1.004886539027038533e-01 1.110727810426719975e+00 1.165418286916729967e-02 -1.210731048142019983e-01
1.110664069450938152e-01 1.184853167016929998e+00 1.199062083077310006e-02 -1.225905589438909954e-01
1.216441599874835688e-01 1.258599021771960036e+00 1.232951326280050039e-02 -1.240335540716420021e-01
1.322219130298733503e-01 1.330716659106349953e+00 1.273551834256349963e-02 -1.252431055298119933e-01
1.427996660722632982e-01 1.402063559953850014e+00 1.317169332223840084e-02 -1.263476239697229886e-01
1.533774191146532462e-01 1.471811548459009966e+00 1.366928886331359935e-02 -1.272356486165009959e-01
1.639551721570429998e-01 1.539369599796480026e+00 1.425307385049530071e-02 -1.278512488474370101e-01
1.745329251994329478e-01 1.605749074567980106e+00 1.488322125951629937e-02 -1.283201868262749956e-01
1.851106782418227292e-01 1.667591656558190083e+00 1.569354903574339891e-02 -1.282496504116419911e-01
1.956884312842125107e-01 1.727155800963730004e+00 1.660150294124010037e-02 -1.279423134099730019e-01
2.062661843266022643e-01 1.782496815934589973e+00 1.769178577043720169e-02 -1.271950790351319971e-01
2.168439373689920457e-01 1.831044131548259957e+00 1.912487940556169969e-02 -1.258694070000569987e-01
2.274216904113817994e-01 1.876183532188820058e+00 2.073420965976089866e-02 -1.242638221983770053e-01
2.379994434537715531e-01 1.911041904537029934e+00 2.290981387984800111e-02 -1.220895740715669947e-01
2.485771964961613345e-01 1.928128166837689950e+00 2.626870908030570079e-02 -1.189726764276410054e-01
2.591549495385511159e-01 1.915338397099650036e+00 3.112812379724740064e-02 -1.143309235836599963e-01
2.697327025809426182e-01 1.902387520873120019e+00 3.690551046728320073e-02 -1.112559338482849991e-01
2.803104556233323996e-01 1.884053315281319918e+00 4.338078740153419877e-02 -1.089052280620220053e-01
2.908882086657221810e-01 1.834670585557029998e+00 5.324423316792949862e-02 -1.080600001230739987e-01
3.014659617081119070e-01 1.785427286000730085e+00 6.310767893432479847e-02 -1.072069749091460050e-01
3.120437147505017439e-01 1.736251589745970048e+00 7.297112470072010526e-02 -1.063454956476160007e-01
3.226214677928914698e-01 1.680804150320760026e+00 8.502455662393469671e-02 -1.076417343663060022e-01
3.331992208352812512e-01 1.623827286948970050e+00 9.762548497022599525e-02 -1.094382687917259955e-01
3.437769738776710327e-01 1.566896714720110051e+00 1.102264133165170024e-01 -1.111798022245390066e-01
3.543547269200608141e-01 1.522507379023390062e+00 1.228567417395390049e-01 -1.138014684083829969e-01
3.649324799624505400e-01 1.490646661701579889e+00 1.355164702348559957e-01 -1.173522777388189969e-01
3.755102330048403769e-01 1.458815568030209953e+00 1.481761987301740136e-01 -1.209020753951789984e-01
3.860879860472301028e-01 1.427018517901780026e+00 1.608359272254910044e-01 -1.244507155059740022e-01
3.966657390896198843e-01 1.395260856499749957e+00 1.734956557208089944e-01 -1.279980227853370067e-01
4.072434921320096657e-01 1.363549109804349957e+00 1.861553842161260131e-01 -1.315437847499920099e-01
4.178212451743993916e-01 1.331891329712789895e+00 1.989353846850729912e-01 -1.350877413448429987e-01
4.283989982167891730e-01 1.320062179961049909e+00 2.109614300384760055e-01 -1.386596087386909870e-01
4.389767512591789544e-01 1.310962383916409957e+00 2.229038711254419936e-01 -1.422282901293950019e-01
4.495545043015704567e-01 1.303415472138210074e+00 2.348446586247510126e-01 -1.457889778397939984e-01
4.601322573439602381e-01 1.297034769742170024e+00 2.467835472689199894e-01 -1.493400469392779928e-01
4.707100103863500196e-01 1.293244738945600103e+00 2.582352325854350150e-01 -1.528794056119389955e-01
4.812877634287397455e-01 1.287453775625430064e+00 2.698774394843320157e-01 -1.564043137073160006e-01
4.918655164711295824e-01 1.278739091162000019e+00 2.821824106334649973e-01 -1.600179474072989938e-01
5.024432695135193638e-01 1.266298533038370033e+00 2.956718100090929835e-01 -1.638755840010210074e-01
5.130210225559090897e-01 1.254019016388409957e+00 3.091540826855559976e-01 -1.677365760195589917e-01
5.235987755982988157e-01 1.241904199397150022e+00 3.226322239961840199e-01 -1.716014910735360055e-01
5.759586531581287749e-01 1.185220244131480083e+00 3.893987460626079922e-01 -1.905170944284690082e-01
6.283185307179586232e-01 1.133916296215740083e+00 4.563069439741159750e-01 -2.087922134206670055e-01
6.806784082777884715e-01 1.091770001090099917e+00 5.262637196905920467e-01 -2.267668703002750086e-01
7.330382858376184307e-01 1.054308786688739952e+00 5.973713326734310103e-01 -2.423034673065919964e-01
7.853981633974482790e-01 1.020764876853690106e+00 6.692770319443660521e-01 -2.560229328629120005e-01
8.377580409572782383e-01 9.676085880448489496e-01 7.413919045461240254e-01 -2.697425007535340091e-01
8.901179185171080865e-01 9.120882642788830097e-01 8.125066605854039947e-01 -2.827829406831420256e-01
9.424777960769379348e-01 8.537789589584630079e-01 8.822277573568879649e-01 -2.954743489044269755e-01
9.948376736367678941e-01 7.934227326982560280e-01 9.502085775521530442e-01 -3.079077004839210208e-01
1.047197551196597631e+00 7.293876048919499810e-01 1.014272365637030049e+00 -3.202262494684229854e-01
1.099557428756427591e+00 6.628248815377240089e-01 1.074711732328470060e+00 -3.322922267049699951e-01
1.151917306316257550e+00 5.940364961993880311e-01 1.131439949188469907e+00 -3.442319200708480187e-01
1.204277183876087287e+00 5.228475040538429486e-01 1.183420826081829969e+00 -3.561716155146130158e-01
1.256637061435917246e+00 4.492754455669930036e-01 1.228419929167340108e+00 -3.674044306540449889e-01
1.308996938995747206e+00 3.745759099478970233e-01 1.268165910651690043e+00 -3.784775902698619965e-01
1.361356816555576943e+00 2.990039201236350253e-01 1.302468132510870014e+00 -3.893753954429720054e-01
1.413716694115406902e+00 2.229796586615389875e-01 1.328752501999499902e+00 -3.997013674066620115e-01
1.466076571675236861e+00 1.475371161450909907e-01 1.347503790795699929e+00 -4.093001798116360224e-01
1.518436449235066599e+00 7.309964683939750019e-02 1.360010093351160076e+00 -4.186652467363199959e-01
1.570796326794896558e+00 2.863451501587360148e-10 1.366193688947729967e+00 -4.280299503652379989e-01
1.623156204354726517e+00 -5.116975309437370167e-02 1.360010093314079960e+00 -4.328746755364190069e-01
1.675516081914556477e+00 -1.032759814439530022e-01 1.347503790751390040e+00 -4.377190568871119902e-01
1.727875959474386214e+00 -1.560857606461560076e-01 1.328752502205420072e+00 -4.419866515484349723e-01
1.780235837034216173e+00 -2.093027436696220100e-01 1.302468132716789961e+00 -4.444093881570340132e-01
1.832595714594046132e+00 -2.622031371759719898e-01 1.268165910508419980e+00 -4.453672291653599791e-01
1.884955592153875870e+00 -3.144928121386599829e-01 1.228419928960249985e+00 -4.458580324009639995e-01
1.937315469713705829e+00 -3.659932525129250269e-01 1.183420826420600092e+00 -4.458897394080539867e-01
1.989675347273535788e+00 -4.158255477039879966e-01 1.131439948808349971e+00 -4.438887562719360247e-01
2.042035224833365525e+00 -4.639774171421969795e-01 1.074711732247239926e+00 -4.418877814334650211e-01
2.094395102393195263e+00 -5.105713232798479995e-01 1.014272365843589929e+00 -4.399325660004119731e-01
2.146754979953025444e+00 -5.553959133642260015e-01 9.502085768727149828e-01 -4.380664978334239956e-01
2.199114857512855181e+00 -5.976452711905499982e-01 8.822277574869159533e-01 -4.363216696018469842e-01
2.251474735072684918e+00 -6.384617846821190046e-01 8.125066611406990269e-01 -4.355793534430379976e-01
2.303834612632515100e+00 -6.773260114398880205e-01 7.413919049211270540e-01 -4.362024327910590249e-01
2.356194490192344837e+00 -7.145354141201000209e-01 6.692770313220179901e-01 -4.394964477719530138e-01
2.408554367752174574e+00 -7.512167436795470499e-01 5.973713326685089475e-01 -4.429229413944589799e-01
2.460914245312004756e+00 -7.882209917121220100e-01 5.262637198243049763e-01 -4.475228957106580086e-01
2.513274122871834493e+00 -8.260761000320000491e-01 4.563069432645159851e-01 -4.547325840877959879e-01
2.565634000431664230e+00 -8.678575719501580021e-01 3.893987462783469744e-01 -4.623098446257770111e-01
2.617993877991494411e+00 -8.266791290238839629e-01 3.247602864894549857e-01 -4.674057642795150236e-01
2.670353755551324149e+00 -7.440112160283770537e-01 2.643866406980510120e-01 -4.476274795037269993e-01
2.722713633111153886e+00 -6.613433030328700335e-01 2.085370277326610011e-01 -4.253632936661150277e-01
2.775073510670984067e+00 -5.786753900373620141e-01 1.574469097786319882e-01 -4.031011930505120078e-01
2.827433388230813804e+00 -4.960074770418549939e-01 1.120177665337249995e-01 -4.165447742143230103e-01
2.879793265790643542e+00 -4.133395640463479737e-01 7.292754350957629528e-02 -4.478404839714459906e-01
