# Angle of attack [rad] 	 Lift coefficient [-] 	 Drag coefficient [-] 	 Moment coefficient [-]
-3.141592653589793116e+00 0.000000000000000000e+00 1.955266186681599988e-02 0.000000000000000000e+00
-3.089232776029963379e+00 8.342022875837269702e-02 2.076197967868290140e-02 1.200000003610469934e-01
-3.036872898470133197e+00 1.668404562657480050e-01 2.398773426028669858e-02 2.399999989225340136e-01
-2.984513020910303460e+00 2.502611434174449867e-01 2.919866634418679871e-02 3.600006586823850108e-01
-2.932153143350473723e+00 3.336851514286660048e-01 4.143252830324300334e-02 3.997436350758979962e-01
-2.879793265790643542e+00 4.171011420738650055e-01 7.324138626275410180e-02 3.993591365216599964e-01
-2.827433388230813804e+00 5.005259254366469790e-01 1.116275266152459977e-01 3.989745974381759819e-01
-2.775073510670984067e+00 5.839370017012599501e-01 1.561468557810599955e-01 4.060855021404050080e-01
-2.722713633111153886e+00 6.673640059755789888e-01 2.061741538963139941e-01 4.281962132399009802e-01
-2.670353755551324149e+00 7.507829487145080138e-01 2.608416897128469913e-01 4.503100769354499988e-01
-2.617993877991494411e+00 8.342022850873930251e-01 3.199304168830329753e-01 4.698677923531410228e-01
-2.565634000431664230e+00 8.750999400698440400e-01 3.831887437610139724e-01 4.638322262772590077e-01
-2.513274122871834493e+00 8.310002059029030219e-01 4.486652023552989976e-01 4.553012552275290115e-01
-2.460914245312004756e+00 7.913336337617810079e-01 5.171206176892330086e-01 4.471599312486599920e-01
-2.408554367752174574e+00 7.528297368009210233e-01 5.866988014715639466e-01 4.414109302036540172e-01
-2.356194490192344837e+00 7.149806185529179459e-01 6.570545325609240539e-01 4.370679515954850047e-01
-2.303834612632515100e+00 6.766179262677369799e-01 7.276101762886230118e-01 4.328412573794579998e-01
-2.251474735072684918e+00 6.365100204664420058e-01 7.971816602774159932e-01 4.314871883276120146e-01
-2.199114857512855181e+00 5.947343795005619604e-01 8.653847777995690160e-01 4.316030597887179909e-01
-2.146754979953025444e+00 5.517213315283789887e-01 9.318801704270089914e-01 4.328184059810509798e-01
-2.094395102393195263e+00 5.064238285848730037e-01 9.945345612750029485e-01 4.342904882274590261e-01
-2.042035224833365525e+00 4.595426239470409846e-01 1.053636171340450067e+00 4.359392070145530207e-01
-1.989675347273535788e+00 4.112688013062740233e-01 1.109100403632820031e+00 4.376789327613540004e-01
-1.937315469713705829e+00 3.614955513582919777e-01 1.159912184607639896e+00 4.394182815831649824e-01
-1.884955592153875870e+00 3.102611590643170048e-01 1.203882758426850108e+00 4.392401958943240037e-01
-1.832595714594046132e+00 2.583665815097990204e-01 1.242706436046620011e+00 4.386290207339300085e-01
-1.780235837034216173e+00 2.059846900741729991e-01 1.276196628266389910e+00 4.375708133509059738e-01
-1.727875959474386214e+00 1.534415125361149879e-01 1.301831899158210071e+00 4.350923578901250144e-01
-1.675516081914556477e+00 1.014258595464409968e-01 1.320087683921620014e+00 4.308251183027709819e-01
-1.623156204354726517e+00 5.020285213645130085e-02 1.332226046749259929e+00 4.259982565254519793e-01
-1.570796326794896558e+00 -1.966541717480030116e-10 1.338171000532800026e+00 4.211705773162789934e-01
-1.518436449235066599e+00 -5.020285183545310226e-02 1.332226046784910078e+00 4.111049599343190031e-01
-1.466076571675236861e+00 -1.014258594063000007e-01 1.320087683964729974e+00 4.010386046817769889e-01
-1.413716694115406902e+00 -1.534415129477569861e-01 1.301831898957380051e+00 3.905500355711389870e-01
-1.361356816555576943e+00 -2.059846904858159966e-01 1.276196628065559890e+00 3.787368301354839817e-01
-1.308996938995747206e+00 -2.583665812993349853e-01 1.242706436186510111e+00 3.659039938309829876e-01
-1.256637061435917246e+00 -3.102611588238979867e-01 1.203882758629200023e+00 3.527755902516759856e-01
-1.204277183876087287e+00 -3.614955516826729998e-01 1.159912184276489899e+00 3.394031231310170038e-01
-1.151917306316257550e+00 -4.112688009422900137e-01 1.109100404004399909e+00 3.249500853380259957e-01
-1.099557428756427591e+00 -4.595426238809819930e-01 1.053636171419880085e+00 3.104970517212110037e-01
-1.047197551196597631e+00 -5.064238287309169584e-01 9.945345610729809938e-01 2.960590910414520049e-01
-9.948376736367678941e-01 -5.517213310479239796e-01 9.318801710915000092e-01 2.816512671854010108e-01
-9.424777960769379348e-01 -5.947343795824140411e-01 8.653847776723819774e-01 2.672571407691640144e-01
-8.901179185171080865e-01 -6.365100207879970107e-01 7.971816597341809807e-01 2.529472550590349811e-01
-8.377580409572782383e-01 -6.766179264676629446e-01 7.276101759217290521e-01 2.387529567473030134e-01
-7.853981633974482790e-01 -7.149806182229550000e-01 6.570545331698169900e-01 2.247835733036870065e-01
-7.330382858376184307e-01 -7.403228310610280305e-01 5.866988014763789838e-01 2.108142175796660078e-01
-6.806784082777884715e-01 -7.687435502509210039e-01 5.171206175583890063e-01 1.825470152009940061e-01
-6.283185307179586232e-01 -8.007599565283080034e-01 4.486652030497079724e-01 1.351383117295729963e-01
-5.759586531581287749e-01 -8.396866455106170024e-01 3.831887435498890215e-01 8.585002102064580309e-02
-5.235987755982988157e-01 -9.578021762158860364e-01 2.903551523817760049e-01 5.628039991610490206e-02
-5.130210225559090897e-01 -9.898956218001480067e-01 2.686363791090979891e-01 5.231787161623450283e-02
-5.024432695135193638e-01 -1.022190481442110110e+00 2.467756936115489963e-01 4.835760081583260345e-02
-4.918655164711295824e-01 -1.054680559999709999e+00 2.247341510224920014e-01 4.440285737391429927e-02
-4.812877634287397455e-01 -1.063591773360170079e+00 2.117825632272380132e-01 4.088968729905070182e-02
-4.707100103863500196e-01 -1.061778422035259961e+00 2.028916124892609918e-01 3.758243272515569833e-02
-4.601322573439602381e-01 -1.059806115885689959e+00 1.939841150476510068e-01 3.432887812885820206e-02
-4.495545043015704567e-01 -1.058760672868320096e+00 1.849401672274769981e-01 3.096592076621619907e-02
-4.389767512591789544e-01 -1.057865639831260030e+00 1.758894829951800076e-01 2.758950482967460066e-02
-4.283989982167891730e-01 -1.057901256902219922e+00 1.668312689538309912e-01 2.421243758379969940e-02
-4.178212451743993916e-01 -1.058349190848210108e+00 1.578704555713280056e-01 2.091430449075969839e-02
-4.072434921320096657e-01 -1.059713971964360013e+00 1.498485368883950009e-01 1.833344601830549925e-02
-3.966657390896198843e-01 -1.061469885837549976e+00 1.418022713311939964e-01 1.575219689353739988e-02
-3.860879860472301028e-01 -1.063783634994430072e+00 1.337154209153169904e-01 1.317017979839670005e-02
-3.755102330048403769e-01 -1.066932341549859942e+00 1.255531800584379909e-01 1.058630076770149947e-02
-3.649324799624505400e-01 -1.068436959645389983e+00 1.174164870508269953e-01 7.995509428683539657e-03
-3.543547269200608141e-01 -1.069672673830790011e+00 1.094390441749820003e-01 5.419813048540699993e-03
-3.437769738776710327e-01 -1.070210671449040030e+00 1.022640190166250046e-01 3.502092045225000012e-03
-3.331992208352812512e-01 -1.070050952394890009e+00 9.589141169678630505e-02 2.254999352390239971e-03
-3.226214677928914698e-01 -1.069891233340749981e+00 8.951880437694799408e-02 1.015301896952500041e-03
-3.120437147505017439e-01 -1.069281822482800015e+00 8.330084710449479901e-02 -1.150069378906609982e-04
-3.014659617081119070e-01 -1.066873644028099921e+00 7.770149015279169402e-02 -7.954563082361710115e-04
-2.908882086657221810e-01 -1.064465465573390057e+00 7.210213320108860291e-02 -1.488047716376399978e-03
-2.803104556233323996e-01 -1.062057287118689963e+00 6.650277624938549792e-02 -2.191299965384179999e-03
-2.697327025809426182e-01 -1.069849506439020104e+00 6.084759834455780170e-02 -2.117603844657860168e-03
-2.591549495385511159e-01 -1.078775103669799895e+00 5.518621810952620277e-02 -1.958986054659449944e-03
-2.485771964961613345e-01 -1.090462954391310024e+00 4.952483787449459690e-02 -1.802066329958229964e-03
-2.379994434537715531e-01 -1.095264166540059980e+00 4.441709454624610115e-02 -2.322061199360660189e-03
-2.274216904113817994e-01 -1.094910305462589939e+00 3.956962313324990238e-02 -3.292670335446799823e-03
-2.168439373689920457e-01 -1.093646859134659977e+00 3.476419528748229959e-02 -4.388512104131639738e-03
-2.062661843266022643e-01 -1.076485785264470030e+00 3.046209864630039857e-02 -7.184882014670749932e-03
-1.956884312842125107e-01 -1.025289250966580079e+00 2.731428435957089854e-02 -1.427585956895159949e-02
-1.851106782418227292e-01 -9.740313734656089739e-01 2.418140657315370062e-02 -2.120642757342820067e-02
-1.745329251994329478e-01 -9.211347019075399878e-01 2.106389650835059982e-02 -2.813676442976410091e-02
-1.639551721570429998e-01 -8.534950830053570359e-01 1.953854334586619876e-02 -3.371438089467770211e-02
-1.533774191146532462e-01 -7.847122122610450390e-01 1.804700549215770139e-02 -3.893004059322040245e-02
-1.427996660722632982e-01 -7.158321209910010197e-01 1.650560267419389979e-02 -4.410244684434989904e-02
-1.322219130298735168e-01 -6.416704913517780051e-01 1.536320782849179972e-02 -4.909532012805670198e-02
-1.216441599874835688e-01 -5.673451434500049739e-01 1.440051280472219933e-02 -5.392906565336599845e-02
-1.110664069450936348e-01 -4.926994427871160265e-01 1.343767049149740059e-02 -5.873847733371510144e-02
-1.004886539027038533e-01 -4.144316506866609906e-01 1.267040519751969942e-02 -6.354483099700050652e-02
-8.991090086031391926e-02 -3.309260427959420103e-01 1.219671460002419959e-02 -6.838664743995130635e-02
-7.933314781792397130e-02 -2.474097252725800111e-01 1.172303879028489988e-02 -7.323262302766750387e-02
-6.875539477553420376e-02 -1.638205937715460081e-01 1.127670612072950024e-02 -7.800207489204059874e-02
-5.817764173314425580e-02 -7.969504187093219560e-02 1.107630223392900085e-02 -8.199821728177260349e-02
-4.759988869075449519e-02 4.449679559156860358e-03 1.087589967737359956e-02 -8.601428562397689381e-02
-3.702213564836454723e-02 8.864735204111119649e-02 1.067549861240709927e-02 -9.000458939048930351e-02
-2.644438260597477622e-02 1.716494213387720069e-01 1.057561679973779978e-02 -9.350255011110189529e-02
-1.586662956358486296e-02 2.529924304137000091e-01 1.051020250572219997e-02 -9.682579006412760092e-02
-5.288876521194919335e-03 3.337209753372499810e-01 1.049768821749249952e-02 -9.987749917931559862e-02
5.288876521194919335e-03 4.144817380001770135e-01 1.051241606601709989e-02 -1.027906227156139968e-01
1.586662956358486296e-02 4.949312641261729984e-01 1.055438584739950073e-02 -1.055655291632539988e-01
2.644438260597477622e-02 5.746035020089850232e-01 1.063741817515249932e-02 -1.081415538053529940e-01
3.702213564836454723e-02 6.539740194818000063e-01 1.073580799626989990e-02 -1.106403649762769947e-01
4.759988869075449519e-02 7.326854585584750001e-01 1.086664144077069925e-02 -1.129707275964809965e-01
5.817764173314425580e-02 8.109247391933519511e-01 1.101889910439689951e-02 -1.151980190947699961e-01
6.875539477553420376e-02 8.887776660148839492e-01 1.118868489894290011e-02 -1.173409921589889937e-01
7.933314781792415171e-02 9.657387981394099929e-01 1.139829427168500067e-02 -1.193140554783820029e-01
8.991090086031391926e-02 1.042199646541549951e+00 1.163676519016450077e-02 -1.212094656252449970e-01
1.004886539027038533e-01 1.117460375952139984e+00 1.194854989987950006e-02 -1.229284609489119939e-01
1.110664069450938152e-01 1.192083945656100097e+00 1.227362030725519942e-02 -1.245251775918610054e-01
1.216441599874835688e-01 1.266278713589179983e+00 1.260746199711069992e-02 -1.260403590150540043e-01
1.322219130298733503e-01 1.338777921500339918e+00 1.301163538882709955e-02 -1.273104929128029972e-01
1.427996660722632982e-01 1.410503625444130105e+00 1.344521005444930008e-02 -1.284728929031140054e-01
1.533774191146532462e-01 1.480631071665120091e+00 1.393813412169899943e-02 -1.294139006829350125e-01
1.639551721570429998e-01 1.548552483155690052e+00 1.451666224565529954e-02 -1.300767517225530079e-01
1.745329251994329478e-01 1.615288639149059957e+00 1.514140319128439924e-02 -1.305899492625139935e-01
1.851106782418227292e-01 1.677494126436269939e+00 1.594622119602109866e-02 -1.305613479548239919e-01
1.956884312842125107e-01 1.737466541864610026e+00 1.685013532281140133e-02 -1.303045272133430132e-01
2.062661843266022643e-01 1.793302010895400089e+00 1.793880469494819885e-02 -1.296236727156979962e-01
2.168439373689920457e-01 1.842707145804870050e+00 1.936664325608309853e-02 -1.284079668893320092e-01
2.274216904113817994e-01 1.888918332072420103e+00 2.097393810481310017e-02 -1.269290520019160096e-01
2.379994434537715531e-01 1.924590430400370034e+00 2.320440141769989847e-02 -1.248349069843919940e-01
2.485771964961613345e-01 1.946350916673089904e+00 2.649011436810999945e-02 -1.220210412855889937e-01
2.591549495385511159e-01 1.943681340205619890e+00 3.114991055846839940e-02 -1.180319845703299980e-01
2.697327025809426182e-01 1.935853370898040104e+00 3.674517178887450053e-02 -1.151289580602409962e-01
2.803104556233323996e-01 1.921492163981239898e+00 4.300121966367149995e-02 -1.127559410807670026e-01
2.908882086657221810e-01 1.879418336475189966e+00 5.210565303069900067e-02 -1.116054365117700037e-01
3.014659617081119070e-01 1.837650000823459973e+00 6.121008639772650139e-02 -1.104529736727720007e-01
3.120437147505017439e-01 1.796029784178150068e+00 7.031451976475400212e-02 -1.092983057336490010e-01
3.226214677928914698e-01 1.741762239525209921e+00 8.189235989688189998e-02 -1.100905433164030001e-01
3.331992208352812512e-01 1.684417242365380041e+00 9.408855158912779459e-02 -1.113454077087529942e-01
3.437769738776710327e-01 1.627173669218030083e+00 1.062847432813739945e-01 -1.125685536440619999e-01
3.543547269200608141e-01 1.581022158466470096e+00 1.188096447943299966e-01 -1.149034970642650033e-01
3.649324799624505400e-01 1.545935066167489991e+00 1.316632560784160022e-01 -1.183767499751570001e-01
3.755102330048403769e-01 1.510912879362309891e+00 1.445168673625009947e-01 -1.218491185889170048e-01
3.860879860472301028e-01 1.475965282046719951e+00 1.573704786465869865e-01 -1.253204757747919951e-01
3.966657390896198843e-01 1.441103985531289933e+00 1.702240899306730060e-01 -1.287906689069439892e-01
4.072434921320096657e-01 1.406343288255430091e+00 1.830777012147589977e-01 -1.322595131908989863e-01
4.178212451743993916e-01 1.371700831946480070e+00 1.961966594207699977e-01 -1.357267828180430125e-01
4.283989982167891730e-01 1.357178290833620071e+00 2.084455988262030046e-01 -1.393217734076969971e-01
4.389767512591789544e-01 1.345366372373580033e+00 2.205982412337960108e-01 -1.429255003389379997e-01
4.495545043015704567e-01 1.334800970477100002e+00 2.327472354565129908e-01 -1.465222734247819958e-01
4.601322573439602381e-01 1.325360943479590103e+00 2.448920403793360123e-01 -1.501106614873209955e-01
4.707100103863500196e-01 1.318310313852629978e+00 2.566062816960379966e-01 -1.536888240291749974e-01
4.812877634287397455e-01 1.309670303453569939e+00 2.684843589864119862e-01 -1.572543519037719884e-01
4.918655164711295824e-01 1.299481441892369915e+00 2.807434486153400077e-01 -1.608551494040660057e-01
5.024432695135193638e-01 1.288033089110119933e+00 2.935684698632409773e-01 -1.645731975544149905e-01
5.130210225559090897e-01 1.276751292844259922e+00 3.063750421365200038e-01 -1.682986743275020070e-01
5.235987755982988157e-01 1.265636622600309957e+00 3.191711572436859989e-01 -1.720328517735220109e-01
5.759586531581287749e-01 1.210559755324819964e+00 3.831887435498890215e-01 -1.905110295393389885e-01
6.283185307179586232e-01 1.153624683752080049e+00 4.486652030497079724e-01 -2.085019063044840082e-01
6.806784082777884715e-01 1.105610554438199999e+00 5.171206175583900055e-01 -2.261789255574100099e-01
7.330382858376184307e-01 1.061782230786860071e+00 5.866988014763799830e-01 -2.413074039049560027e-01
7.853981633974482790e-01 1.021400883175650032e+00 6.570545331698169900e-01 -2.545363744854929888e-01
8.377580409572782383e-01 9.665970378109479677e-01 7.276101759217290521e-01 -2.677654348776680182e-01
8.901179185171080865e-01 9.093000296971389673e-01 7.971816597341819799e-01 -2.803156660413689827e-01
9.424777960769379348e-01 8.496205422605920266e-01 8.653847776723819774e-01 -2.925170197884059964e-01
9.948376736367678941e-01 7.881733300684620191e-01 9.318801710915010084e-01 -3.044614130654230144e-01
1.047197551196597631e+00 7.234626124727380203e-01 9.945345610729819930e-01 -3.163106855605519740e-01
1.099557428756427591e+00 6.564894626871170535e-01 1.053636171419880085e+00 -3.279506870742849856e-01
1.151917306316257550e+00 5.875268584889860035e-01 1.109100404004399909e+00 -3.394860548517260046e-01
1.204277183876087287e+00 5.164222166895330313e-01 1.159912184276489899e+00 -3.510214244426290153e-01
1.256637061435917246e+00 4.432302268912819976e-01 1.203882758629200023e+00 -3.619298151986219958e-01
1.308996938995747206e+00 3.690951161419069870e-01 1.242706436186510111e+00 -3.726965967993249862e-01
1.361356816555576943e+00 2.942638435511660266e-01 1.276196628065559890e+00 -3.833020808029140025e-01
1.413716694115406902e+00 2.192021613539389957e-01 1.301831898957380051e+00 -3.933859814995889770e-01
1.466076571675236861e+00 1.448940848661429970e-01 1.320087683964729974e+00 -4.027974640794900196e-01
1.518436449235066599e+00 7.171835976493269593e-02 1.332226046784910078e+00 -4.119844353066189901e-01
1.570796326794896558e+00 2.809343887178420238e-10 1.338171000532800026e+00 -4.211705773197250147e-01
1.623156204354726517e+00 -5.020285213645109962e-02 1.332226046749259929e+00 -4.259982565254509801e-01
1.675516081914556477e+00 -1.014258595464419960e-01 1.320087683921620014e+00 -4.308251183027709819e-01
1.727875959474386214e+00 -1.534415125361149879e-01 1.301831899158210071e+00 -4.350923578901250144e-01
1.780235837034216173e+00 -2.059846900741729991e-01 1.276196628266389910e+00 -4.375708133509059738e-01
1.832595714594046132e+00 -2.583665815097990204e-01 1.242706436046620011e+00 -4.386290207339300085e-01
1.884955592153875870e+00 -3.102611590643170048e-01 1.203882758426850108e+00 -4.392401958943240037e-01
1.937315469713705829e+00 -3.614955513582929769e-01 1.159912184607639896e+00 -4.394182815831649824e-01
1.989675347273535788e+00 -4.112688013062740233e-01 1.109100403632820031e+00 -4.376789327613540004e-01
2.042035224833365525e+00 -4.595426239470409846e-01 1.053636171340450067e+00 -4.359392070145530207e-01
2.094395102393195263e+00 -5.064238285848730037e-01 9.945345612750019493e-01 -4.342904882274600253e-01
2.146754979953025444e+00 -5.517213315283789887e-01 9.318801704270099906e-01 -4.328184059810509798e-01
2.199114857512855181e+00 -5.947343795005619604e-01 8.653847777995700152e-01 -4.316030597887179909e-01
2.251474735072684918e+00 -6.365100204664420058e-01 7.971816602774149940e-01 -4.314871883276120146e-01
2.303834612632515100e+00 -6.766179262677369799e-01 7.276101762886230118e-01 -4.328412573794579998e-01
2.356194490192344837e+00 -7.149806185529179459e-01 6.570545325609240539e-01 -4.370679515954850047e-01
2.408554367752174574e+00 -7.528297368009210233e-01 5.866988014715639466e-01 -4.414109302036540172e-01
2.460914245312004756e+00 -7.913336337617810079e-01 5.171206176892320094e-01 -4.471599312486599920e-01
2.513274122871834493e+00 -8.310002059029030219e-01 4.486652023552989976e-01 -4.553012552275290115e-01
2.565634000431664230e+00 -8.750999400698440400e-01 3.831887437610139724e-01 -4.638322262772590077e-01
2.617993877991494411e+00 -8.342022850873920259e-01 3.199304168830319761e-01 -4.698677923531410228e-01
2.670353755551324149e+00 -7.507820564846869882e-01 2.608410903843950135e-01 -4.503098403826960028e-01
2.722713633111153886e+00 -6.673618278819819505e-01 2.061727845534550019e-01 -4.281956359089439945e-01
2.775073510670984067e+00 -5.839415992792760246e-01 1.561495312637589949e-01 -4.060867204919659801e-01
2.827433388230813804e+00 -5.005213706765709869e-01 1.116253482466380009e-01 -4.189746185651819776e-01
2.879793265790643542e+00 -4.171011420738650055e-01 7.324138626275429609e-02 -4.493591366881860005e-01
