# Angle of attack [rad] 	 Lift coefficient [-] 	 Drag coefficient [-] 	 Moment coefficient [-]
-3.141592653589793116e+00 4.857225732735060327e-18 2.464146255885970097e-02 0.000000000000000000e+00
-3.089232776029963379e+00 7.090787833834230613e-02 2.598996543944490090e-02 1.200000003610469934e-01
-3.036872898470133197e+00 1.418157556133259889e-01 2.958704076947000008e-02 2.399999989225340136e-01
-2.984513020910303460e+00 2.127240235897520093e-01 3.539810620979470107e-02 3.600006586823850108e-01
-2.932153143350473723e+00 2.836351143239990158e-01 6.235362461307499687e-02 3.886831310028580067e-01
-2.879793265790643542e+00 3.545393902313990209e-01 9.813156638881599669e-02 3.717099831233909857e-01
-2.827433388230813804e+00 4.254511400208280114e-01 1.406385418825250033e-01 3.547350461373670050e-01
-2.775073510670984067e+00 4.963512386644409746e-01 1.901410208547709979e-01 3.508710036244219732e-01
-2.722713633111153886e+00 5.672648762468850414e-01 2.458488491268699949e-01 3.732296289463469807e-01
-2.670353755551324149e+00 6.381716614581569580e-01 3.067428227127920182e-01 3.955860937586029857e-01
-2.617993877991494411e+00 7.090787812615190200e-01 3.725623548535160201e-01 4.162799460056499923e-01
-2.565634000431664230e+00 7.504435754821310312e-01 4.430167672216929753e-01 4.203468567747680185e-01
-2.513274122871834493e+00 7.327222019776600259e-01 5.159340686845930168e-01 4.227510494760450266e-01
-2.460914245312004756e+00 7.144124708265909840e-01 5.921455587116689623e-01 4.252498067288379979e-01
-2.408554367752174574e+00 6.945740088809460033e-01 6.695880032111729552e-01 4.285192648014680139e-01
-2.356194490192344837e+00 6.728764919195310279e-01 7.478747302125819951e-01 4.323632023182990003e-01
-2.303834612632515100e+00 6.480570508759020409e-01 8.263510019116270255e-01 4.362071398781650067e-01
-2.251474735072684918e+00 6.195510519596110210e-01 9.036919900902440350e-01 4.410157546958269892e-01
-2.199114857512855181e+00 5.880978838899679761e-01 9.794760392248610392e-01 4.463201479168980024e-01
-2.146754979953025444e+00 5.536413680045559893e-01 1.053323490103790006e+00 4.519636513652420251e-01
-2.094395102393195263e+00 5.145777300792609976e-01 1.122834002401319919e+00 4.572214784667900100e-01
-2.042035224833365525e+00 4.724703468731469846e-01 1.188342617381020094e+00 4.616308174092310090e-01
-1.989675347273535788e+00 4.276754157318530258e-01 1.249756998223489957e+00 4.656159122924850013e-01
-1.937315469713705829e+00 3.799662962329259930e-01 1.305938165173339938e+00 4.696010072151070025e-01
-1.884955592153875870e+00 3.291674346638159832e-01 1.354431451871670022e+00 4.706246895135979824e-01
-1.832595714594046132e+00 2.766806489723749873e-01 1.397144374945499923e+00 4.709794562715299837e-01
-1.780235837034216173e+00 2.227168122303830045e-01 1.433868773986860079e+00 4.707188871345640013e-01
-1.727875959474386214e+00 1.673235137365149949e-01 1.461777192217460053e+00 4.687146004953999801e-01
-1.675516081914556477e+00 1.114420674592769972e-01 1.481407092649879909e+00 4.645145214219429941e-01
-1.623156204354726517e+00 5.558074182305940136e-02 1.494176074990900105e+00 4.596282571899050207e-01
-1.570796326794896558e+00 -2.177203850954519976e-10 1.499999999977190024e+00 4.547419928941000000e-01
-1.518436449235066599e+00 -5.558074148981730078e-02 1.494176075025819950e+00 4.442561949407820010e-01
-1.466076571675236861e+00 -1.114420673078300034e-01 1.481407092695949945e+00 4.337703968976899804e-01
-1.413716694115406902e+00 -1.673235141704869922e-01 1.461777191998820058e+00 4.227518157150669809e-01
-1.361356816555576943e+00 -2.227168126643550017e-01 1.433868773768210092e+00 4.100283287292019740e-01
-1.308996938995747206e+00 -2.766806487564030248e-01 1.397144375099039992e+00 3.959509458595180109e-01
-1.256637061435917246e+00 -3.291674344246319772e-01 1.354431452094760013e+00 3.814569849266319923e-01
-1.204277183876087287e+00 -3.799662965438579953e-01 1.305938164807189938e+00 3.665697108708440011e-01
-1.151917306316257550e+00 -4.276754153829659955e-01 1.249756998634329985e+00 3.499411676762150258e-01
-1.099557428756427591e+00 -4.724703468126930095e-01 1.188342617469019924e+00 3.333126243173190062e-01
-1.047197551196597631e+00 -5.145777302052170210e-01 1.122834002177200086e+00 3.165338042180619871e-01
-9.948376736367678941e-01 -5.536413675902609466e-01 1.053323490840990084e+00 2.994544307768179925e-01
-9.424777960769379348e-01 -5.880978839552449822e-01 9.794760390836040331e-01 2.822384418828440267e-01
-8.901179185171080865e-01 -6.195510521897330536e-01 9.036919894864190450e-01 2.651013764175699783e-01
-8.377580409572782383e-01 -6.480570510049650235e-01 8.263510015035440137e-01 2.480829375089139976e-01
-7.853981633974482790e-01 -6.728764917053410288e-01 7.478747308898270330e-01 2.312953199565639939e-01
-7.330382858376184307e-01 -6.570740088795099521e-01 6.695880032165310025e-01 2.145077022162650004e-01
-6.806784082777884715e-01 -6.394124708615680497e-01 5.921455585660020393e-01 1.891640639766269949e-01
-6.283185307179586232e-01 -6.202222017897129902e-01 5.159340694579279685e-01 1.523419786977990020e-01
-5.759586531581287749e-01 -6.004435755392709684e-01 4.430167669865799907e-01 1.141114944763159944e-01
-5.235987755982988157e-01 -6.188553505754480488e-01 3.528099992416179886e-01 8.331889979229289978e-02
-5.130210225559090897e-01 -6.264325172594289448e-01 3.328399992187989764e-01 7.784947554361899835e-02
-5.024432695135193638e-01 -6.411038570777549683e-01 3.128699991959800197e-01 7.238005129494499978e-02
-4.918655164711295824e-01 -6.566854570882070252e-01 2.928999991731610075e-01 6.691062704627100122e-02
-4.812877634287397455e-01 -6.989730726884659795e-01 2.712849992741550031e-01 6.009450885048030211e-02
-4.707100103863500196e-01 -7.532039456308979863e-01 2.489649995683609895e-01 5.270123622066030106e-02
-4.601322573439602381e-01 -8.082032968658060534e-01 2.266449998625670037e-01 4.530796359084039715e-02
-4.495545043015704567e-01 -8.639711263931869611e-01 2.043250001567729901e-01 3.791469096102050018e-02
-4.389767512591789544e-01 -9.205074342130430409e-01 1.820050004509790043e-01 3.052141833120049913e-02
-4.283989982167891730e-01 -9.813805951905250069e-01 1.596850007451849907e-01 2.312814570138059869e-02
-4.178212451743993916e-01 -1.038975310025409993e+00 1.387462261415760012e-01 1.617132437912829901e-02
-4.072434921320096657e-01 -1.055494326250639991e+00 1.302384837076120128e-01 1.314256679990979948e-02
-3.966657390896198843e-01 -1.072013342475879982e+00 1.217307412736479966e-01 1.011380922069140056e-02
-3.860879860472301028e-01 -1.088532358701109981e+00 1.132229988396839943e-01 7.085051641472929658e-03
-3.755102330048403769e-01 -1.105051374926349972e+00 1.047152564057200058e-01 4.056294062254479568e-03
-3.649324799624505400e-01 -1.121570391151579971e+00 9.620751397175579533e-02 1.027536483036050078e-03
-3.543547269200608141e-01 -1.138089407376819961e+00 8.769977153779190404e-02 -2.001221096182399795e-03
-3.437769738776710327e-01 -1.148414565071230076e+00 8.066494566109619346e-02 -4.000599963977440054e-03
-3.331992208352812512e-01 -1.152545863300570073e+00 7.510303656383170157e-02 -4.970599965085820311e-03
-3.226214677928914698e-01 -1.156677161529920062e+00 6.954112746656719579e-02 -5.940599966194210109e-03
-3.120437147505017439e-01 -1.160141018170149918e+00 6.410919410497190052e-02 -6.843639372527759827e-03
-3.014659617081119070e-01 -1.160935107887679951e+00 5.919716379632879860e-02 -7.478836342950540353e-03
-2.908882086657221810e-01 -1.161729197605199992e+00 5.428513348768569668e-02 -8.114033313373330419e-03
-2.803104556233323996e-01 -1.162523287322720034e+00 4.937310317904260171e-02 -8.749230283796120486e-03
-2.697327025809426182e-01 -1.163065084085209921e+00 4.487019103897219724e-02 -9.411781798787830292e-03
-2.591549495385511159e-01 -1.163578848287730061e+00 4.041273648842429872e-02 -1.007737270863929939e-02
-2.485771964961613345e-01 -1.164092612490259970e+00 3.595528193787630306e-02 -1.074296361849070083e-02
-2.379994434537715531e-01 -1.152402205701950066e+00 3.183637282736719726e-02 -1.313259990901229947e-02
-2.274216904113817994e-01 -1.132575684024909934e+00 2.794316070170639946e-02 -1.667159991305619884e-02
-2.168439373689920457e-01 -1.112749162347880016e+00 2.404994857604569880e-02 -2.021059991710009995e-02
-2.062661843266022643e-01 -1.079261278076699915e+00 2.064596368677560148e-02 -2.462240894722670173e-02
-1.956884312842125107e-01 -1.013896877651569994e+00 1.838350913873590051e-02 -3.107077259095860147e-02
-1.851106782418227292e-01 -9.485324772264449589e-01 1.612105459069609892e-02 -3.751913623469060183e-02
-1.745329251994329478e-01 -8.831680768013190352e-01 1.385860004265630080e-02 -4.396749987842259871e-02
-1.639551721570429998e-01 -8.066473885315069703e-01 1.291784244090449923e-02 -4.808628780583869972e-02
-1.533774191146532462e-01 -7.301267000513540495e-01 1.197708486407189979e-02 -5.220507568933289988e-02
-1.427996660722632982e-01 -6.536060115712020169e-01 1.103632728723939922e-02 -5.632386357282719719e-02
-1.322219130298735168e-01 -5.768904968623269625e-01 1.034294546293500032e-02 -5.966272419950840317e-02
-1.216441599874835688e-01 -5.000914851922879656e-01 9.755581825900170451e-03 -6.266733026354780189e-02
-1.110664069450936348e-01 -4.232924735222490242e-01 9.168218188865370072e-03 -6.567193632758709654e-02
-1.004886539027038533e-01 -3.462505130794210073e-01 8.598350308931520386e-03 -6.860551209052380417e-02
-8.991090086031391926e-02 -2.688441294602300080e-01 8.054726065886100295e-03 -7.143254239678439865e-02
-7.933314781792397130e-02 -1.914377458410390087e-01 7.511101822840680203e-03 -7.425957270304510416e-02
-6.875539477553420376e-02 -1.142000914714819959e-01 7.009980303911159984e-03 -7.698650907734609639e-02
-5.817764173314425580e-02 -3.848100047586929667e-02 6.891383334078679708e-03 -7.881259998852359339e-02
-4.759988869075449519e-02 3.723809051974340256e-02 6.772786364246189891e-03 -8.063869089970120141e-02
-3.702213564836454723e-02 1.129571815153559977e-01 6.654189394413700075e-03 -8.246478181087869841e-02
-2.644438260597477622e-02 1.880795815258810011e-01 6.636850606220609863e-03 -8.404900609117510468e-02
-1.586662956358486296e-02 2.630142633074940006e-01 6.648805455968980274e-03 -8.556491824252719647e-02
-5.288876521194919335e-03 3.377305207851479807e-01 6.683308485322989913e-03 -8.703637274750909703e-02
5.288876521194919335e-03 4.122775817960980249e-01 6.733175150618059789e-03 -8.847925149570119718e-02
1.586662956358486296e-02 4.866554463403480191e-01 6.798405451854189901e-03 -8.989355448710349694e-02
2.644438260597477622e-02 5.606452642842290057e-01 6.895971816109999764e-03 -9.125747573039159899e-02
3.702213564836454723e-02 6.344647508541679803e-01 7.005804545219110335e-03 -9.259937878564780678e-02
4.759988869075449519e-02 7.078768272827630215e-01 7.141877268749119781e-03 -9.388877268957669664e-02
5.817764173314425580e-02 7.808818002192130514e-01 7.307009995234200334e-03 -9.513383330283800565e-02
6.875539477553420376e-02 8.535536884242680422e-01 7.495919091770999847e-03 -9.634262121763639830e-02
7.933314781792415171e-02 9.252608522694190096e-01 7.756806359008020131e-03 -9.745437270832159327e-02
8.991090086031391926e-02 9.963126892326470418e-01 8.074109379880239565e-03 -9.850628179068320056e-02
1.004886539027038533e-01 1.065720119977920044e+00 8.536666969417669448e-03 -9.941100909036279520e-02
1.110664069450938152e-01 1.133902125119959914e+00 9.071449996974149596e-03 -1.001998454508520042e-01
1.216441599874835688e-01 1.201267179898370063e+00 9.654383314273769223e-03 -1.009114211888560014e-01
1.322219130298733503e-01 1.265677474365890065e+00 1.042393696519980026e-02 -1.013423151491140012e-01
1.427996660722632982e-01 1.329437679472869949e+00 1.120682727813170076e-02 -1.017129636381710056e-01
1.533774191146532462e-01 1.392043875049739921e+00 1.199791816546350032e-02 -1.019775090854399963e-01
1.639551721570429998e-01 1.453014507381559905e+00 1.283068786943480054e-02 -1.020935787874839989e-01
1.745329251994329478e-01 1.513104451628829894e+00 1.368590001830780056e-02 -1.021296999954929979e-01
1.851106782418227292e-01 1.569690323222840078e+00 1.465693029462969942e-02 -1.018906696990379973e-01
1.956884312842125107e-01 1.624692357020359967e+00 1.568748179980690091e-02 -1.015513272811919970e-01
2.062661843266022643e-01 1.676752977424220026e+00 1.682857274289159891e-02 -1.010256909018960036e-01
2.168439373689920457e-01 1.723183724652380011e+00 1.825891212645189970e-02 -1.002297272696529989e-01
2.274216904113817994e-01 1.766489175785610044e+00 1.985500600976990160e-02 -9.929790002790529757e-02
2.379994434537715531e-01 1.796257242691859934e+00 2.224512729309410103e-02 -9.798589998882009655e-02
2.485771964961613345e-01 1.813781757694739927e+00 2.543946673440839953e-02 -9.644689391046160076e-02
2.591549495385511159e-01 1.812940946862449998e+00 2.984013328003369894e-02 -9.456737881064289364e-02
2.697327025809426182e-01 1.785143834479530067e+00 3.643648184276730012e-02 -9.288922726732240509e-02
2.803104556233323996e-01 1.746294219844080065e+00 4.407045182963179736e-02 -9.146901819081700025e-02
2.908882086657221810e-01 1.688841004012809899e+00 5.445596699301410298e-02 -9.176620000933839727e-02
3.014659617081119070e-01 1.631387788181549947e+00 6.484148215639649881e-02 -9.206338182785979429e-02
3.120437147505017439e-01 1.573934572350280003e+00 7.522699731977880444e-02 -9.236056364638120519e-02
3.226214677928914698e-01 1.529928972508729945e+00 8.571934885145179872e-02 -9.394416976336890379e-02
3.331992208352812512e-01 1.489285275951520049e+00 9.623840946953210462e-02 -9.584938188675799775e-02
3.437769738776710327e-01 1.448641579394309931e+00 1.067574700876119942e-01 -9.775459401014720273e-02
3.543547269200608141e-01 1.413785437135210099e+00 1.174763185997760029e-01 -1.001462001101680044e-01
3.649324799624505400e-01 1.384716848301259962e+00 1.283949549758889863e-01 -1.030242001134570040e-01
3.755102330048403769e-01 1.355648259467310046e+00 1.393135913520019975e-01 -1.059022001167450044e-01
3.860879860472301028e-01 1.326579670633359909e+00 1.502322277281140095e-01 -1.087802001200340041e-01
3.966657390896198843e-01 1.297511081799419985e+00 1.611508641042269929e-01 -1.116582001233220045e-01
4.072434921320096657e-01 1.268442492965470070e+00 1.720695004803400041e-01 -1.145362001266110041e-01
4.178212451743993916e-01 1.239373904131519932e+00 1.829881368564529875e-01 -1.174142001298990046e-01
4.283989982167891730e-01 1.208142804380039959e+00 1.965998186462540043e-01 -1.215141819595989964e-01
4.389767512591789544e-01 1.178304248976050017e+00 2.105107275537989875e-01 -1.257499394795240089e-01
4.495545043015704567e-01 1.153737562563400099e+00 2.244216364613449977e-01 -1.299856969994480083e-01
4.601322573439602381e-01 1.129768315092730013e+00 2.383325453688910078e-01 -1.342214545193730069e-01
4.707100103863500196e-01 1.106396506564049975e+00 2.522434542764360188e-01 -1.384572120392980055e-01
4.812877634287397455e-01 1.087946515854389951e+00 2.661543631839820012e-01 -1.426929695592230041e-01
4.918655164711295824e-01 1.070841864954509948e+00 2.823837718313200185e-01 -1.473399088587830086e-01
5.024432695135193638e-01 1.046581410372680043e+00 3.040230142802899937e-01 -1.529462725015529878e-01
5.130210225559090897e-01 1.022320955790849917e+00 3.256622567292580261e-01 -1.585526361443229948e-01
5.235987755982988157e-01 9.980605012090130179e-01 3.473014991782270022e-01 -1.641589997870930018e-01
5.759586531581287749e-01 9.220622507703879478e-01 4.430167669865799907e-01 -1.890503770144499884e-01
6.283185307179586232e-01 9.342460025567339565e-01 5.159340694579279685e-01 -2.082215084552269946e-01
6.806784082777884715e-01 9.455892440879539729e-01 5.921455585660020393e-01 -2.272040422844250063e-01
7.330382858376184307e-01 9.547485841135859852e-01 6.695880032165320017e-01 -2.446495077710809929e-01
7.853981633974482790e-01 9.612521310076289627e-01 7.478747308898270330e-01 -2.609492443501050252e-01
8.377580409572782383e-01 9.257957871499510327e-01 8.263510015035440137e-01 -2.772489807466430034e-01
8.901179185171080865e-01 8.850729316996189810e-01 9.036919894864190450e-01 -2.928268286489110195e-01
9.424777960769379348e-01 8.401398342217779591e-01 9.794760390836040331e-01 -3.080336751257590211e-01
9.948376736367678941e-01 7.909162394146580510e-01 1.053323490840990084e+00 -3.229578069494820070e-01
1.047197551196597631e+00 7.351110431503099507e-01 1.122834002177200086e+00 -3.375915208071210150e-01
1.099557428756427591e+00 6.749576383038470295e-01 1.188342617469019924e+00 -3.515863157018129792e-01
1.151917306316257550e+00 6.109648791185230410e-01 1.249756998634329985e+00 -3.652616510532130101e-01
1.204277183876087287e+00 5.428089950626540094e-01 1.305938164807189938e+00 -3.789369862695199931e-01
1.256637061435917246e+00 4.702391920351879917e-01 1.354431452094760013e+00 -3.912473796187900255e-01
1.308996938995747206e+00 3.952580696520029968e-01 1.397144375099039992e+00 -4.032494636170850244e-01
1.361356816555576943e+00 3.181668752347929785e-01 1.433868773768210092e+00 -4.149640974164129914e-01
1.413716694115406902e+00 2.390335916721240128e-01 1.461777191998820058e+00 -4.258520186648570016e-01
1.466076571675236861e+00 1.592029532968990135e-01 1.481407092695949945e+00 -4.356988945877580122e-01
1.518436449235066599e+00 7.940105927116719586e-02 1.494176075025819950e+00 -4.452204437835770023e-01
1.570796326794896558e+00 3.110289803487380184e-10 1.499999999977190024e+00 -4.547419928978769788e-01
1.623156204354726517e+00 -5.558074182305920014e-02 1.494176074990900105e+00 -4.596282571899050207e-01
1.675516081914556477e+00 -1.114420674592769972e-01 1.481407092649879909e+00 -4.645145214219429941e-01
1.727875959474386214e+00 -1.673235137365149949e-01 1.461777192217460053e+00 -4.687146004953999801e-01
1.780235837034216173e+00 -2.227168122303830045e-01 1.433868773986860079e+00 -4.707188871345640013e-01
1.832595714594046132e+00 -2.766806489723749873e-01 1.397144374945499923e+00 -4.709794562715299837e-01
1.884955592153875870e+00 -3.291674346638159832e-01 1.354431451871670022e+00 -4.706246895135979824e-01
1.937315469713705829e+00 -3.799662962329269922e-01 1.305938165173339938e+00 -4.696010072151070025e-01
1.989675347273535788e+00 -4.276754157318530258e-01 1.249756998223489957e+00 -4.656159122924850013e-01
2.042035224833365525e+00 -4.724703468731469846e-01 1.188342617381020094e+00 -4.616308174092310090e-01
2.094395102393195263e+00 -5.145777300792609976e-01 1.122834002401319919e+00 -4.572214784667900100e-01
2.146754979953025444e+00 -5.536413680045559893e-01 1.053323490103790006e+00 -4.519636513652420251e-01
2.199114857512855181e+00 -5.880978838899679761e-01 9.794760392248610392e-01 -4.463201479168980024e-01
2.251474735072684918e+00 -6.195510519596110210e-01 9.036919900902440350e-01 -4.410157546958269892e-01
2.303834612632515100e+00 -6.480570508759030401e-01 8.263510019116270255e-01 -4.362071398781650067e-01
2.356194490192344837e+00 -6.728764919195310279e-01 7.478747302125819951e-01 -4.323632023182990003e-01
2.408554367752174574e+00 -6.945740088809460033e-01 6.695880032111719560e-01 -4.285192648014680139e-01
2.460914245312004756e+00 -7.144124708265909840e-01 5.921455587116689623e-01 -4.252498067288379979e-01
2.513274122871834493e+00 -7.327222019776600259e-01 5.159340686845930168e-01 -4.227510494760450266e-01
2.565634000431664230e+00 -7.504435754821310312e-01 4.430167672216929753e-01 -4.203468567747680185e-01
2.617993877991494411e+00 -7.090787812615180208e-01 3.725623548535160201e-01 -4.162799460056499923e-01
2.670353755551324149e+00 -6.381709030554939543e-01 3.067421550772659877e-01 -3.955858546389989794e-01
2.722713633111153886e+00 -5.672630248494709981e-01 2.458473239427449997e-01 -3.732290452123500080e-01
2.775073510670984067e+00 -4.963551466434459880e-01 1.901439989221780091e-01 -3.508722357856999818e-01
2.827433388230813804e+00 -4.254472684374229763e-01 1.406361243496719871e-01 -3.747359730537440092e-01
2.879793265790643542e+00 -3.545393902313990209e-01 9.813156638881620486e-02 -4.217099832899169898e-01
