# Angle of attack [rad] 	 Lift coefficient [-] 	 Drag coefficient [-] 	 Moment coefficient [-]
-3.141592653589793116e+00 0.000000000000000000e+00 1.586791414912019915e-02 0.000000000000000000e+00
-3.089232776029963379e+00 8.185086677101660602e-02 1.712967103767090021e-02 1.200000003610469934e-01
-3.036872898470133197e+00 1.637017323145699976e-01 2.049528400927400074e-02 2.399999989225340136e-01
-2.984513020910303460e+00 2.455530488552820079e-01 2.593212262046749872e-02 3.600006586823850108e-01
-2.932153143350473723e+00 3.274076237810960022e-01 3.918677475054600096e-02 3.984758963680529731e-01
-2.879793265790643542e+00 4.092543321694039893e-01 7.260705495920109775e-02 3.961900312285689951e-01
-2.827433388230813804e+00 4.911096678603010246e-01 1.123656546985939975e-01 3.939039251404800046e-01
-2.775073510670984067e+00 5.729515543209240391e-01 1.586527901037619870e-01 3.998464034033429870e-01
-2.722713633111153886e+00 6.548090691419560239e-01 2.107501252366789923e-01 4.222509564752209843e-01
-2.670353755551324149e+00 7.366586740870599836e-01 2.677063466022139848e-01 4.446533392814600028e-01
-2.617993877991494411e+00 8.185086652607940216e-01 3.292820819341369942e-01 4.646446827606829921e-01
-2.565634000431664230e+00 8.599493981904650086e-01 3.952123466847630162e-01 4.605229550671869898e-01
-2.513274122871834493e+00 8.205699409196329785e-01 4.634602995642370105e-01 4.539776666687079798e-01
-2.460914245312004756e+00 7.846147699129459863e-01 5.348217610777580289e-01 4.477350996626540125e-01
-2.408554367752174574e+00 7.492212294268020267e-01 6.073601746223039610e-01 4.439114351131179803e-01
-2.356194490192344837e+00 7.138848678045720542e-01 6.807157874052589541e-01 4.414949723333490006e-01
-2.303834612632515100e+00 6.777399871526970099e-01 7.542891620345010262e-01 4.391334806942979729e-01
-2.251474735072684918e+00 6.398353895872870289e-01 8.268474296108559995e-01 4.392273059233809951e-01
-2.199114857512855181e+00 6.000780519822279668e-01 8.979883293050140436e-01 4.405799745298180081e-01
-2.146754979953025444e+00 5.586155241029480134e-01 9.673584622199510319e-01 4.428428480353079899e-01
-2.094395102393195263e+00 5.142805617444039523e-01 1.032740404942219969e+00 4.451108801057809816e-01
-2.042035224833365525e+00 4.679928181342469795e-01 1.094430879011210056e+00 4.473750476855880009e-01
-1.989675347273535788e+00 4.199861945312289846e-01 1.152341168800409932e+00 4.496373602844049855e-01
-1.937315469713705829e+00 3.701245248364529727e-01 1.205415334017249984e+00 4.518997730460880269e-01
-1.884955592153875870e+00 3.183957859127670154e-01 1.251376207168950039e+00 4.520139492806620196e-01
-1.832595714594046132e+00 2.657538151611940069e-01 1.291984574960749921e+00 4.516429108298189998e-01
-1.780235837034216173e+00 2.123826349509979894e-01 1.327046012770330075e+00 4.507849568576079990e-01
-1.727875959474386214e+00 1.585457069860500001e-01 1.353937168072820052e+00 4.484187259104889800e-01
-1.675516081914556477e+00 1.050001645642729964e-01 1.373151549692660067e+00 4.441531535548520204e-01
-1.623156204354726517e+00 5.207224813303180239e-02 1.386001605483659915e+00 4.392940240860059853e-01
-1.570796326794896558e+00 -2.039769548955079952e-10 1.392407993360120111e+00 4.344348816969170191e-01
-1.518436449235066599e+00 -5.207224782082540276e-02 1.386001605522070079e+00 4.239923213702910254e-01
-1.466076571675236861e+00 -1.050001644197979950e-01 1.373151549738109933e+00 4.135497419618309745e-01
-1.413716694115406902e+00 -1.585457074078290007e-01 1.353937167862139912e+00 4.026610510114950192e-01
-1.361356816555576943e+00 -2.123826353727769900e-01 1.327046012559649935e+00 3.903457487629770073e-01
-1.308996938995747206e+00 -2.657538149469579891e-01 1.291984575107169908e+00 3.768987276554179866e-01
-1.256637061435917246e+00 -3.183957856698350075e-01 1.251376207380479944e+00 3.631294424248729946e-01
-1.204277183876087287e+00 -3.701245251614119769e-01 1.205415333671360001e+00 3.490853833551729735e-01
-1.151917306316257550e+00 -4.199861941665999909e-01 1.152341169188529912e+00 3.338248234855060170e-01
-1.099557428756427591e+00 -4.679928180687549788e-01 1.094430879094139941e+00 3.185642655067840168e-01
-1.047197551196597631e+00 -5.142805618873510509e-01 1.032740404731399941e+00 3.032924820306049929e-01
-9.948376736367678941e-01 -5.586155236327250417e-01 9.673584629133680224e-01 2.879982433486120152e-01
-9.424777960769379348e-01 -6.000780520610490276e-01 8.979883291723299577e-01 2.726937970797420063e-01
-8.901179185171080865e-01 -6.398353898899969971e-01 8.268474290442779928e-01 2.574827853818389967e-01
-8.377580409572782383e-01 -6.777399873392809804e-01 7.542891616519129538e-01 2.424017316849650105e-01
-7.853981633974482790e-01 -7.138848674914759496e-01 6.807157880401919492e-01 2.275735512196389865e-01
-7.330382858376184307e-01 -7.276961550899070374e-01 6.073601746273249447e-01 2.127453837661240077e-01
-6.806784082777884715e-01 -7.457341344300659758e-01 5.348217609413580265e-01 1.840932010498800009e-01
-6.283185307179586232e-01 -7.685112142191159457e-01 4.634603002880510192e-01 1.369141163065649980e-01
-5.759586531581287749e-01 -7.989520879767040284e-01 3.952123464647059881e-01 8.748824744116799612e-02
-5.235987755982988157e-01 -9.223506916934329780e-01 2.955717281327480128e-01 5.743632981165470303e-02
-5.130210225559090897e-01 -9.568556766577660522e-01 2.722653311954589817e-01 5.332376673680880308e-02
-5.024432695135193638e-01 -9.915714288708710189e-01 2.489558364878780017e-01 4.921264210505439662e-02
-4.918655164711295824e-01 -1.026482363662359898e+00 2.256467358688500069e-01 4.510462036193760293e-02
-4.812877634287397455e-01 -1.035477583570870053e+00 2.124088558932969995e-01 4.152016536816929837e-02
-4.707100103863500196e-01 -1.033115197596450097e+00 2.035366053674459996e-01 3.816791557221760334e-02
-4.601322573439602381e-01 -1.030759130870930074e+00 1.946589122494750135e-01 3.484120420023160275e-02
-4.495545043015704567e-01 -1.028929137535240068e+00 1.857193543024809879e-01 3.146296014591649925e-02
-4.389767512591789544e-01 -1.027253649988199902e+00 1.767795503536560009e-01 2.807858152564830095e-02
-4.283989982167891730e-01 -1.027062904039089952e+00 1.678394714295499968e-01 2.469417912071780047e-02
-4.178212451743993916e-01 -1.027361860079410105e+00 1.589992872394440093e-01 2.138408389246470101e-02
-4.072434921320096657e-01 -1.027893097585609983e+00 1.510604307667449964e-01 1.874300435712160026e-02
-3.966657390896198843e-01 -1.028438811392279995e+00 1.431206851893500054e-01 1.610191055584849970e-02
-3.860879860472301028e-01 -1.029005171363299942e+00 1.351794575248499997e-01 1.346078870965849994e-02
-3.755102330048403769e-01 -1.029602434126190014e+00 1.272354767350659943e-01 1.081959886888209967e-02
-3.649324799624505400e-01 -1.030138847169580041e+00 1.192924289074570043e-01 8.178156602857290791e-03
-3.543547269200608141e-01 -1.030665307751220006e+00 1.113551966124030068e-01 5.537265577976119638e-03
-3.437769738776710327e-01 -1.029863999053910018e+00 1.042724765944030019e-01 3.526087229077479873e-03
-3.331992208352812512e-01 -1.027734920877380054e+00 9.804426898234229470e-02 2.161707316971630058e-03
-3.226214677928914698e-01 -1.025605842700850090e+00 9.181606137028200387e-02 8.008233569724740276e-04
-3.120437147505017439e-01 -1.023168218024909981e+00 8.571465314496269639e-02 -4.637712201057680051e-04
-3.014659617081119070e-01 -1.019496407089580003e+00 8.012044257418809989e-02 -1.337391290932599900e-03
-2.908882086657221810e-01 -1.015824596154250026e+00 7.452623200341340626e-02 -2.216751269801450156e-03
-2.803104556233323996e-01 -1.012152785218920048e+00 6.893202143263879589e-02 -3.101150950182100102e-03
-2.697327025809426182e-01 -1.027773634224010024e+00 6.263417812120880557e-02 -3.046950037722330126e-03
-2.591549495385511159e-01 -1.045538112829869970e+00 5.625815336794529747e-02 -2.889124773559909997e-03
-2.485771964961613345e-01 -1.064626020274560103e+00 4.988212861468190040e-02 -2.732102236157189865e-03
-2.379994434537715531e-01 -1.075840970227929905e+00 4.434887920859559990e-02 -3.177885031998799962e-03
-2.274216904113817994e-01 -1.081537071519039994e+00 3.934594706665960062e-02 -4.025225062177499591e-03
-2.168439373689920457e-01 -1.086797379587030044e+00 3.435488495759830146e-02 -4.877143607615129668e-03
-2.062661843266022643e-01 -1.075124827319960064e+00 2.986228897859430007e-02 -7.649844629139690259e-03
-1.956884312842125107e-01 -1.025091688635350051e+00 2.653204465467539838e-02 -1.497845169516560070e-02
-1.851106782418227292e-01 -9.750659225344560088e-01 2.320234578527450089e-02 -2.223165288840489931e-02
-1.745329251994329478e-01 -9.244103877903929734e-01 1.987320811782899987e-02 -2.948484564052369916e-02
-1.639551721570429998e-01 -8.557287302723339817e-01 1.828035503777730025e-02 -3.514923257789050182e-02
-1.533774191146532462e-01 -7.865052527616459566e-01 1.670271094533630138e-02 -4.064616115919809924e-02
-1.427996660722632982e-01 -7.172433728111839990e-01 1.510055509723019947e-02 -4.612723745892090277e-02
-1.322219130298735168e-01 -6.414222358219829889e-01 1.400491407838560035e-02 -5.131011140567889872e-02
-1.216441599874835688e-01 -5.633069348225250295e-01 1.313074723079120029e-02 -5.633281009929760191e-02
-1.110664069450936348e-01 -4.850381489658370238e-01 1.225648259984249942e-02 -6.135600420811480188e-02
-1.004886539027038533e-01 -4.048006496475570204e-01 1.157142419043400046e-02 -6.614186022283699562e-02
-8.991090086031391926e-02 -3.217036609338789765e-01 1.117031225561159954e-02 -7.057229963470930401e-02
-7.933314781792397130e-02 -2.386015411065139924e-01 1.076920022287079955e-02 -7.500486558340850596e-02
-6.875539477553420376e-02 -1.556044889890330074e-01 1.039218860638809958e-02 -7.934675620619789649e-02
-5.817764173314425580e-02 -7.361001537171810161e-02 1.023207939260580013e-02 -8.283203955234109961e-02
-4.759988869075449519e-02 8.393642597510360404e-03 1.007196567645390027e-02 -8.631775724512880110e-02
-3.702213564836454723e-02 9.042267005195080143e-02 9.911846825229709418e-03 -8.977895874159469436e-02
-2.644438260597477622e-02 1.714714292310270116e-01 9.836446285869840378e-03 -9.284453675780629522e-02
-1.586662956358486296e-02 2.518434531817799749e-01 9.790646209882030229e-03 -9.576198135162609926e-02
-5.288876521194919335e-03 3.315826801338400132e-01 9.792562179254520396e-03 -9.846108650739829327e-02
5.288876521194919335e-03 4.111573196076699910e-01 9.819090674693690610e-03 -1.010514129085599982e-01
1.586662956358486296e-02 4.904129389154199825e-01 9.870232290514910356e-03 -1.035332020273779935e-01
2.644438260597477622e-02 5.689761588883249788e-01 9.961905656597670397e-03 -1.058494057083829987e-01
3.702213564836454723e-02 6.472657203474929677e-01 1.006886402106750046e-02 -1.081013898737730045e-01
4.759988869075449519e-02 7.249617376807520053e-01 1.020835801090480034e-02 -1.102134311447249965e-01
5.817764173314425580e-02 8.022174543750479891e-01 1.036809594024899923e-02 -1.122369953971569939e-01
6.875539477553420376e-02 8.791129944276120378e-01 1.054439331718030025e-02 -1.141881712681530048e-01
7.933314781792415171e-02 9.551484426290529628e-01 1.076157011602099992e-02 -1.159827738748619996e-01
8.991090086031391926e-02 1.030649921353240073e+00 1.101459955968809960e-02 -1.177017255939309948e-01
1.004886539027038533e-01 1.104840179055839977e+00 1.136147595887949946e-02 -1.192459131386369997e-01
1.110664069450938152e-01 1.178476850244589924e+00 1.170858646502260028e-02 -1.206848449786720040e-01
1.216441599874835688e-01 1.251742647696959976e+00 1.205587833774619984e-02 -1.220535957116559989e-01
1.322219130298733503e-01 1.323430534911490097e+00 1.246783524796329923e-02 -1.231988498255259940e-01
1.427996660722632982e-01 1.394330996065469952e+00 1.291266259885100014e-02 -1.242400574632200050e-01
1.533774191146532462e-01 1.463588017581169964e+00 1.342593473927460035e-02 -1.250659095862819981e-01
1.639551721570429998e-01 1.530698638503120046e+00 1.402416821268000040e-02 -1.256266567789240118e-01
1.745329251994329478e-01 1.596653236514439911e+00 1.466809025400019929e-02 -1.260446418226529863e-01
1.851106782418227292e-01 1.658091428807290102e+00 1.548931093090710059e-02 -1.259291544054770007e-01
1.956884312842125107e-01 1.717242309069570094e+00 1.640490692415559962e-02 -1.255732136937489918e-01
2.062661843266022643e-01 1.772148008217429904e+00 1.749624091675809970e-02 -1.247706871921489963e-01
2.168439373689920457e-01 1.820064075301180084e+00 1.892470223205919982e-02 -1.233653600950369994e-01
2.274216904113817994e-01 1.864451152351590091e+00 2.052506824806520080e-02 -1.216729776627469978e-01
2.379994434537715531e-01 1.898723619451099909e+00 2.265853397436180111e-02 -1.194525246857330025e-01
2.485771964961613345e-01 1.913515459462260093e+00 2.601627566021990148e-02 -1.161906863576900040e-01
2.591549495385511159e-01 1.897935706613449902e+00 3.108848882551900131e-02 -1.113203286639409956e-01
2.697327025809426182e-01 1.881739251044040051e+00 3.699925105287339699e-02 -1.082302654882130039e-01
2.803104556233323996e-01 1.860921848435640014e+00 4.360269831143760016e-02 -1.059258376017900016e-01
2.908882086657221810e-01 1.807211442459520034e+00 5.390989394213929753e-02 -1.052252114552389983e-01
3.014659617081119070e-01 1.753512343109600025e+00 6.421708957284100183e-02 -1.045201201022900039e-01
3.120437147505017439e-01 1.699818725824790100e+00 7.452428520354270614e-02 -1.038102080439940039e-01
3.226214677928914698e-01 1.643518057113430020e+00 8.685576764732300115e-02 -1.053975103601989954e-01
3.331992208352812512e-01 1.586568748646909999e+00 9.969332168703129438e-02 -1.075402978229119955e-01
3.437769738776710327e-01 1.529623194006809905e+00 1.125308757267400039e-01 -1.096560950112839966e-01
3.543547269200608141e-01 1.486043894847240088e+00 1.252228410572409911e-01 -1.125161878087699990e-01
3.649324799624505400e-01 1.455829826078010036e+00 1.377692177004949947e-01 -1.161450676088110062e-01
3.755102330048403769e-01 1.425618159540279928e+00 1.503155943437489983e-01 -1.197735266875649962e-01
3.860879860472301028e-01 1.395409253650550019e+00 1.628619709870040011e-01 -1.234015042877189966e-01
3.966657390896198843e-01 1.365203541858710068e+00 1.754083476302580047e-01 -1.270289273651880047e-01
4.072434921320096657e-01 1.335001553367449967e+00 1.879547242735120083e-01 -1.306557073198049979e-01
4.178212451743993916e-01 1.304803941118610089e+00 2.005107909160520063e-01 -1.342817356249030036e-01
4.283989982167891730e-01 1.294312478703270042e+00 2.124012956719139866e-01 -1.378456247424910130e-01
4.389767512591789544e-01 1.286592882996369980e+00 2.242178627183749884e-01 -1.413999846218400025e-01
4.495545043015704567e-01 1.280715634748909926e+00 2.360342965395909876e-01 -1.449510117976549883e-01
4.601322573439602381e-01 1.275403689540949959e+00 2.478505773749989927e-01 -1.484980332436769968e-01
4.707100103863500196e-01 1.271246053349230021e+00 2.594654303601989787e-01 -1.520401820783849889e-01
4.812877634287397455e-01 1.266319486845109976e+00 2.711601938624910169e-01 -1.555763222891269892e-01
4.918655164711295824e-01 1.258447801339170002e+00 2.836217070344549951e-01 -1.592420802733270080e-01
5.024432695135193638e-01 1.244950046186080073e+00 2.977234257744719725e-01 -1.632249940701999968e-01
5.130210225559090897e-01 1.231629802341400071e+00 3.118252564421090112e-01 -1.672081717100580012e-01
5.235987755982988157e-01 1.218489275704260022e+00 3.259270921520269759e-01 -1.711916539466729892e-01
5.759586531581287749e-01 1.160200744056250066e+00 3.952123464647059881e-01 -1.905206402120820097e-01
6.283185307179586232e-01 1.114469113431419967e+00 4.634603002880510192e-01 -2.090578397953699874e-01
6.806784082777884715e-01 1.078042102251280054e+00 5.348217609413580265e-01 -2.273083673326569965e-01
7.330382858376184307e-01 1.046741576916349947e+00 6.073601746273249447e-01 -2.432269614740099895e-01
7.853981633974482790e-01 1.019835524987819930e+00 6.807157880401929484e-01 -2.574074163660570180e-01
8.377580409572782383e-01 9.681999819132579566e-01 7.542891616519129538e-01 -2.715879136260320181e-01
8.901179185171080865e-01 9.140505569857090284e-01 8.268474290442789920e-01 -2.850886006928710081e-01
9.424777960769379348e-01 8.572543600872130076e-01 8.979883291723299577e-01 -2.982399091012870040e-01
9.948376736367678941e-01 7.980221766181779808e-01 9.673584629133690216e-01 -3.111319630720250085e-01
1.047197551196597631e+00 7.346865169819299934e-01 1.032740404731399941e+00 -3.238902223134559888e-01
1.099557428756427591e+00 6.685611686696499856e-01 1.094430879094139941e+00 -3.363541309376950061e-01
1.151917306316257550e+00 5.999802773808570189e-01 1.152341169188529912e+00 -3.486708650531969989e-01
1.204277183876087287e+00 5.287493216591599987e-01 1.205415333671360001e+00 -3.609875999581729777e-01
1.256637061435917246e+00 4.548511223854779795e-01 1.251376207380479944e+00 -3.725209032601550230e-01
1.308996938995747206e+00 3.796483070670820248e-01 1.291984575107169908e+00 -3.838772524031909827e-01
1.361356816555576943e+00 3.034037648182519864e-01 1.327046012559649935e+00 -3.950448098376350137e-01
1.413716694115406902e+00 2.264938677254700050e-01 1.353937167862139912e+00 -4.055962376276410208e-01
1.466076571675236861e+00 1.500002348854249934e-01 1.373151549738109933e+00 -4.153712297129010245e-01
1.518436449235066599e+00 7.438892545832169467e-02 1.386001605522070079e+00 -4.249030668804649746e-01
1.570796326794896558e+00 2.913954981414190067e-10 1.392407993360120111e+00 -4.344348817004849983e-01
1.623156204354726517e+00 -5.207224813303160116e-02 1.386001605483659915e+00 -4.392940240860059853e-01
1.675516081914556477e+00 -1.050001645642729964e-01 1.373151549692660067e+00 -4.441531535548520204e-01
1.727875959474386214e+00 -1.585457069860500001e-01 1.353937168072820052e+00 -4.484187259104889800e-01
1.780235837034216173e+00 -2.123826349509979894e-01 1.327046012770330075e+00 -4.507849568576079990e-01
1.832595714594046132e+00 -2.657538151611940069e-01 1.291984574960749921e+00 -4.516429108298189998e-01
1.884955592153875870e+00 -3.183957859127670154e-01 1.251376207168950039e+00 -4.520139492806620196e-01
1.937315469713705829e+00 -3.701245248364540275e-01 1.205415334017249984e+00 -4.518997730460880269e-01
1.989675347273535788e+00 -4.199861945312289846e-01 1.152341168800409932e+00 -4.496373602844049855e-01
2.042035224833365525e+00 -4.679928181342469795e-01 1.094430879011210056e+00 -4.473750476855880009e-01
2.094395102393195263e+00 -5.142805617444049515e-01 1.032740404942219969e+00 -4.451108801057809816e-01
2.146754979953025444e+00 -5.586155241029480134e-01 9.673584622199510319e-01 -4.428428480353079899e-01
2.199114857512855181e+00 -6.000780519822279668e-01 8.979883293050140436e-01 -4.405799745298180081e-01
2.251474735072684918e+00 -6.398353895872870289e-01 8.268474296108550003e-01 -4.392273059233809951e-01
2.303834612632515100e+00 -6.777399871526970099e-01 7.542891620345010262e-01 -4.391334806942979729e-01
2.356194490192344837e+00 -7.138848678045720542e-01 6.807157874052589541e-01 -4.414949723333490006e-01
2.408554367752174574e+00 -7.492212294268030259e-01 6.073601746223039610e-01 -4.439114351131179803e-01
2.460914245312004756e+00 -7.846147699129469855e-01 5.348217610777570297e-01 -4.477350996626540125e-01
2.513274122871834493e+00 -8.205699409196329785e-01 4.634602995642370105e-01 -4.539776666687079798e-01
2.565634000431664230e+00 -8.599493981904660078e-01 3.952123466847630162e-01 -4.605229550671869898e-01
2.617993877991494411e+00 -8.185086652607940216e-01 3.292820819341359950e-01 -4.646446827606829921e-01
2.670353755551324149e+00 -7.366577986425150160e-01 2.677057221092000172e-01 -4.446530996708270012e-01
2.722713633111153886e+00 -6.548069320242380087e-01 2.107486988025520092e-01 -4.222503715421370152e-01
2.775073510670984067e+00 -5.729560654059600022e-01 1.586555750390369890e-01 -3.998476380954509857e-01
2.827433388230813804e+00 -4.911051987876819958e-01 1.123633946313469939e-01 -4.139040500877310125e-01
2.879793265790643542e+00 -4.092543321694039893e-01 7.260705495920119490e-02 -4.461900313950949992e-01
