# Angle of attack [rad] 	 Lift coefficient [-] 	 Drag coefficient [-] 	 Moment coefficient [-]
-3.141592653589793116e+00 0.000000000000000000e+00 2.532901482786530101e-02 0.000000000000000000e+00
-3.089232776029963379e+00 8.592850162962240024e-02 2.648879631953380068e-02 1.200000003610469934e-01
-3.036872898470133197e+00 1.718570019706320007e-01 2.958225450991890104e-02 2.399999989225340136e-01
-2.984513020910303460e+00 2.577859757765130211e-01 3.457905486523350086e-02 3.600006586823850108e-01
-2.932153143350473723e+00 3.437183702932620211e-01 4.481354734031309933e-02 4.015185376217340063e-01
-2.879793265790643542e+00 4.296425063784570231e-01 7.358999429691570615e-02 4.037960548061009791e-01
-2.827433388230813804e+00 5.155756995599749537e-01 1.104629765138799985e-01 4.060738120591320111e-01
-2.775073510670984067e+00 6.014947734993759676e-01 1.535065287751380125e-01 4.148896497785939941e-01
-2.722713633111153886e+00 6.874302543706259927e-01 2.020042554272399871e-01 4.367854119091750253e-01
-2.670353755551324149e+00 7.733574313128720457e-01 2.550385061236339901e-01 4.586756688285569816e-01
-2.617993877991494411e+00 8.592850137248310149e-01 3.123772635008900123e-01 4.777965784450010078e-01
-2.565634000431664230e+00 8.996629831974179980e-01 3.737689307646039905e-01 4.692403992436839921e-01
-2.513274122871834493e+00 8.489075632852279840e-01 4.373168675213879864e-01 4.578480233261449928e-01
-2.460914245312004756e+00 8.037325681017030155e-01 5.037561429810369917e-01 4.468020152493230035e-01
-2.408554367752174574e+00 7.602387096852150083e-01 5.712847802542080355e-01 4.391177371098820004e-01
-2.356194490192344837e+00 7.178314873714749522e-01 6.395669124490299673e-01 4.336267647346639942e-01
-2.303834612632515100e+00 6.760520444870690149e-01 7.080402562153520485e-01 4.281357922979699970e-01
-2.251474735072684918e+00 6.339437538952830131e-01 7.755545923148150500e-01 4.257808961991850216e-01
-2.199114857512855181e+00 5.909366806219690238e-01 8.417375259604380489e-01 4.250377296742949840e-01
-2.146754979953025444e+00 5.468761988300030463e-01 9.062593546306629833e-01 4.254511551121579749e-01
-2.094395102393195263e+00 5.009136290661639901e-01 9.670465851494830511e-01 4.259844098318890104e-01
-2.042035224833365525e+00 4.536176219575879798e-01 1.024380477358850072e+00 4.269987128557800049e-01
-1.989675347273535788e+00 4.051544893846319995e-01 1.078179078282220038e+00 4.282524217785840248e-01
-1.937315469713705829e+00 3.554403397794739794e-01 1.127456112656850085e+00 4.295063195715930204e-01
-1.884955592153875870e+00 3.045501960145429732e-01 1.170085103161250029e+00 4.291351536130589839e-01
-1.832595714594046132e+00 2.531779026413150113e-01 1.207712920821909952e+00 4.283969713212260055e-01
-1.780235837034216173e+00 2.014887726292700076e-01 1.240158393647950108e+00 4.272587642185650125e-01
-1.727875959474386214e+00 1.498533178395360099e-01 1.264971879369209962e+00 4.247889788559199853e-01
-1.675516081914556477e+00 9.891232628582599662e-02 1.282615739011440104e+00 4.206425288856189826e-01
-1.623156204354726517e+00 4.888783506477899915e-02 1.294316349099839947e+00 4.159724512381239858e-01
-1.570796326794896558e+00 -1.915029960844229923e-10 1.299999999977740073e+00 4.113027924429880078e-01
-1.518436449235066599e+00 -4.888783477166509794e-02 1.294316349133910027e+00 4.016331183550719830e-01
-1.466076571675236861e+00 -9.891232614873060602e-02 1.282615739053069914e+00 3.919637634006040150e-01
-1.413716694115406902e+00 -1.498533182440680012e-01 1.264971879174809910e+00 3.818980379781349854e-01
-1.361356816555576943e+00 -2.014887730338009997e-01 1.240158393453560048e+00 3.705493355282409862e-01
-1.308996938995747206e+00 -2.531779024334929740e-01 1.207712920957459968e+00 3.581640244883910196e-01
-1.256637061435917246e+00 -3.045501957758749989e-01 1.170085103357410006e+00 3.455019643792089923e-01
-1.204277183876087287e+00 -3.554403401034729737e-01 1.127456112335700089e+00 3.326174644377989931e-01
-1.151917306316257550e+00 -4.051544890210839744e-01 1.078179078642570010e+00 3.187481828440700271e-01
-1.099557428756427591e+00 -4.536176218911289748e-01 1.024380477435899994e+00 3.048789011133309912e-01
-1.047197551196597631e+00 -5.009136292143649971e-01 9.670465849534819469e-01 2.910431056918629800e-01
-9.948376736367678941e-01 -5.468761983425409756e-01 9.062593552753499537e-01 2.772678039335820244e-01
-9.424777960769379348e-01 -5.909366807058209492e-01 8.417375258370249913e-01 2.635234040924179788e-01
-8.901179185171080865e-01 -6.339437542265859982e-01 7.755545917876489614e-01 2.498569218325029928e-01
-8.377580409572782383e-01 -6.760520447020560431e-01 7.080402558592839846e-01 2.362956900373129887e-01
-7.853981633974482790e-01 -7.178314870084929744e-01 6.395669130399489477e-01 2.229388743653880067e-01
-7.330382858376184307e-01 -7.648259058463739990e-01 5.712847802588809643e-01 2.095822047181939984e-01
-6.806784082777884715e-01 -8.120112923485479639e-01 5.037561428540450192e-01 1.816328588205539940e-01
-6.283185307179586232e-01 -8.599773183608170335e-01 4.373168681953619741e-01 1.340867828754589985e-01
-5.759586531581287749e-01 -9.126035133489249773e-01 3.737689305597030054e-01 8.387540963175670050e-02
-5.235987755982988157e-01 -1.025366664231329938e+00 2.842205528400930103e-01 5.462395337195390110e-02
-5.130210225559090897e-01 -1.053977233140150016e+00 2.636316680140959878e-01 5.082084638862559983e-02
-5.024432695135193638e-01 -1.082477229904579952e+00 2.431459613133709896e-01 4.701822675200369867e-02
-4.918655164711295824e-01 -1.110849244415659909e+00 2.227827963369869990e-01 4.321626040248510020e-02
-4.812877634287397455e-01 -1.119940953430170083e+00 2.102250175778200003e-01 3.974534182927679654e-02
-4.707100103863500196e-01 -1.120749806061329901e+00 2.009698648500169993e-01 3.641619064206590151e-02
-4.601322573439602381e-01 -1.121487684051369893e+00 1.917323905648080085e-01 3.308720904038760235e-02
-4.495545043015704567e-01 -1.122154609666009994e+00 1.824992778151370010e-01 2.975843684321829996e-02
-4.389767512591789544e-01 -1.122750605170699911e+00 1.732703868755300081e-01 2.642992679416280091e-02
-4.283989982167891730e-01 -1.122989533502380066e+00 1.640462149796889924e-01 2.310175010868580070e-02
-4.178212451743993916e-01 -1.123164466586560106e+00 1.549529788775410033e-01 1.986396040154870049e-02
-4.072434921320096657e-01 -1.123875577012219962e+00 1.469991284851140112e-01 1.743585642665650137e-02
-3.966657390896198843e-01 -1.124347370080480024e+00 1.390605366423320055e-01 1.500756312199729922e-02
-3.860879860472301028e-01 -1.124477847665579899e+00 1.311473799364850090e-01 1.257929697021369954e-02
-3.755102330048403769e-01 -1.124097450631859951e+00 1.232814715457229982e-01 1.015172234129150045e-02
-3.649324799624505400e-01 -1.124873449362769895e+00 1.153897054389900062e-01 7.727981800173690415e-03
-3.543547269200608141e-01 -1.125807544317809938e+00 1.073940753383929997e-01 5.297790797157559718e-03
-3.437769738776710327e-01 -1.126665595065279968e+00 1.001433221515170002e-01 3.481061111044959824e-03
-3.331992208352812512e-01 -1.127444877435370030e+00 9.363296334262030673e-02 2.294454261558160138e-03
-3.226214677928914698e-01 -1.128205506710409978e+00 8.712286765862570226e-02 1.110529429157759967e-03
-3.120437147505017439e-01 -1.128374821099960013e+00 8.079638092958769946e-02 5.053781651630750283e-05
-3.014659617081119070e-01 -1.126229220405160047e+00 7.520378942675609579e-02 -5.119189421875679690e-04
-2.908882086657221810e-01 -1.124080434537040096e+00 6.961131246094459657e-02 -1.074593230715219921e-03
-2.803104556233323996e-01 -1.121929032206510080e+00 6.401893355811029418e-02 -1.637446343956260042e-03
-2.697327025809426182e-01 -1.120430251478230055e+00 5.906408269249439902e-02 -1.569409515860209926e-03
-2.591549495385511159e-01 -1.119003536057560089e+00 5.418006324570730226e-02 -1.431416585387589990e-03
-2.485771964961613345e-01 -1.117576278249559962e+00 4.929604413920980061e-02 -1.293559631361049928e-03
-2.379994434537715531e-01 -1.113049857516599905e+00 4.476338607920739981e-02 -1.848190963227040002e-03
-2.274216904113817994e-01 -1.106456040165000099e+00 4.049357257599160015e-02 -2.868773366345079949e-03
-2.168439373689920457e-01 -1.099860387471089940e+00 3.621225783585910185e-02 -3.799734732920890135e-03
-2.062661843266022643e-01 -1.079145457684189902e+00 3.237563119158030217e-02 -6.256494601089230070e-03
-1.956884312842125107e-01 -1.025043069108070082e+00 2.958927135833730113e-02 -1.217940883134909988e-02
-1.851106782418227292e-01 -9.709704944393600101e-01 2.679360134544889888e-02 -1.810293304584209909e-02
-1.745329251994329478e-01 -9.170681842616650314e-01 2.398836244132300163e-02 -2.404595450928050104e-02
-1.639551721570429998e-01 -8.490623251232159996e-01 2.227138731216130041e-02 -2.959481128402170064e-02
-1.533774191146532462e-01 -7.810617989774949477e-01 2.055330407505320117e-02 -3.514205653166090071e-02
-1.427996660722632982e-01 -7.130670003873950114e-01 1.883388211452309904e-02 -4.068950342557119820e-02
-1.322219130298735168e-01 -6.423374187034900373e-01 1.752899783872570103e-02 -4.570185989261060094e-02
-1.216441599874835688e-01 -5.697615572370929860e-01 1.640217947029639842e-02 -5.049588180414740085e-02
-1.110664069450936348e-01 -4.971855386417060041e-01 1.527532179762280083e-02 -5.530712530296050256e-02
-1.004886539027038533e-01 -4.201623676126159945e-01 1.436279257747440086e-02 -6.033729357144079763e-02
-8.991090086031391926e-02 -3.364682695199319729e-01 1.377181254715320081e-02 -6.566937427359480217e-02
-7.933314781792397130e-02 -2.527735218044119825e-01 1.318082816223810003e-02 -7.100136201178440520e-02
-6.875539477553420376e-02 -1.688767882424530020e-01 1.262297694879820076e-02 -7.627165937894520020e-02
-5.817764173314425580e-02 -8.316768344422660608e-02 1.236336772962959990e-02 -8.098930546660129681e-02
-4.759988869075449519e-02 2.544136081409640107e-03 1.210375740054219981e-02 -8.569398897813239324e-02
-3.702213564836454723e-02 8.825823332623169981e-02 1.184414597032469943e-02 -9.039046226961730546e-02
-2.644438260597477622e-02 1.729945738212030071e-01 1.170870112608670029e-02 -9.454062292482350027e-02
-1.586662956358486296e-02 2.576979247515889804e-01 1.161497041843360077e-02 -9.847210396028370505e-02
-5.288876521194919335e-03 3.414065071458580181e-01 1.158172772102650065e-02 -1.020604253274190049e-01
5.288876521194919335e-03 4.245205591668910206e-01 1.157966729558090012e-02 -1.054660038946119982e-01
1.586662956358486296e-02 5.070540620919800068e-01 1.160879016629269914e-02 -1.086883343307489952e-01
2.644438260597477622e-02 5.886957588542279796e-01 1.168032188988120043e-02 -1.116564369521270000e-01
3.702213564836454723e-02 6.699728247367829903e-01 1.176797942471489999e-02 -1.145259030056769989e-01
4.759988869075449519e-02 7.504385302058550478e-01 1.189021077563530079e-02 -1.171799717737970065e-01
5.817764173314425580e-02 8.303442562096590152e-01 1.203711748394119957e-02 -1.197046267998199964e-01
6.875539477553420376e-02 9.097919467801980353e-01 1.220420892615940028e-02 -1.221233787677550031e-01
7.933314781792415171e-02 9.882443041113210258e-01 1.241302917506680037e-02 -1.243428894511399985e-01
8.991090086031391926e-02 1.066264906794269995e+00 1.263931033647850040e-02 -1.264808488087519889e-01
1.004886539027038533e-01 1.143325254174119898e+00 1.290393782028689991e-02 -1.284405956403260052e-01
1.110664069450938152e-01 1.219476916125509902e+00 1.320796550317220042e-02 -1.302458338043200048e-01
1.216441599874835688e-01 1.295023167661990104e+00 1.353836047093549995e-02 -1.319480638442560028e-01
1.322219130298733503e-01 1.368645666337009903e+00 1.394746115917539983e-02 -1.333674139030530115e-01
1.427996660722632982e-01 1.441441691863009966e+00 1.438675380344820072e-02 -1.346660851203219933e-01
1.533774191146532462e-01 1.512546463430100019e+00 1.488677893121860031e-02 -1.357179319452430089e-01
1.639551721570429998e-01 1.581350580041350096e+00 1.547172175364320071e-02 -1.364683497902370035e-01
1.745329251994329478e-01 1.648917193939160031e+00 1.610228703114070098e-02 -1.370563712038999904e-01
1.851106782418227292e-01 1.711884057156269900e+00 1.691780087100170152e-02 -1.370994174207199878e-01
1.956884312842125107e-01 1.772686683079230052e+00 1.783816734833749973e-02 -1.369377767118200029e-01
2.062661843266022643e-01 1.829159854855670009e+00 1.895348773904280068e-02 -1.363960176153390103e-01
2.168439373689920457e-01 1.879275778025550014e+00 2.041208829966789998e-02 -1.354387479244920089e-01
2.274216904113817994e-01 1.925894228599750013e+00 2.206184887762990127e-02 -1.342720514912039975e-01
2.379994434537715531e-01 1.958919311059110102e+00 2.458407152226589967e-02 -1.325157648709069935e-01
2.485771964961613345e-01 1.984134141934430051e+00 2.763789639682870045e-02 -1.306154777860260019e-01
2.591549495385511159e-01 1.998471271040519914e+00 3.145620883619840158e-02 -1.284942862697970034e-01
2.697327025809426182e-01 2.000367375543299797e+00 3.668215290551019719e-02 -1.263318009689819998e-01
2.803104556233323996e-01 1.996407571128590019e+00 4.256742881809760098e-02 -1.241913231148050051e-01
2.908882086657221810e-01 1.976161766304219913e+00 5.034492035329649756e-02 -1.223831882403779991e-01
3.014659617081119070e-01 1.955729044117469950e+00 5.812463250983319896e-02 -1.205700210894089935e-01
3.120437147505017439e-01 1.935205694263889997e+00 6.590621448686889705e-02 -1.187514736791040054e-01
3.226214677928914698e-01 1.888957233999039920e+00 7.664656791316820650e-02 -1.181945949943119939e-01
3.331992208352812512e-01 1.836225869712069914e+00 8.812728861204349728e-02 -1.179458451722159990e-01
3.437769738776710327e-01 1.783432448422199945e+00 9.960904818979479658e-02 -1.176831056872409964e-01
3.543547269200608141e-01 1.737455795773920064e+00 1.119343524978719945e-01 -1.191286979944080060e-01
3.649324799624505400e-01 1.698312823858530107e+00 1.251028892265380055e-01 -1.222978951195559938e-01
3.755102330048403769e-01 1.659130139055430053e+00 1.382722018805130071e-01 -1.254674290164090045e-01
3.860879860472301028e-01 1.619901816142979900e+00 1.514425175993399930e-01 -1.286373372595190079e-01
3.966657390896198843e-01 1.580620689472560070e+00 1.646141617639819976e-01 -1.318076631223729922e-01
4.072434921320096657e-01 1.541278010442399982e+00 1.777876175499210065e-01 -1.349784566432339905e-01
4.178212451743993916e-01 1.501862984836229931e+00 1.907745874199630043e-01 -1.381497758979020052e-01
4.283989982167891730e-01 1.482894334831009964e+00 2.032602053597979963e-01 -1.418300859537409975e-01
4.389767512591789544e-01 1.465990849816269925e+00 2.156899205908890116e-01 -1.455670349680880105e-01
4.495545043015704567e-01 1.448590648313929918e+00 2.281219221939159991e-01 -1.493041226978830127e-01
4.601322573439602381e-01 1.431023085487590052e+00 2.405565492937390137e-01 -1.530413624969889919e-01
4.707100103863500196e-01 1.413266570221320073e+00 2.529942115709459816e-01 -1.567787676593470070e-01
4.812877634287397455e-01 1.395294361060839927e+00 2.654354086177109773e-01 -1.605163515138789965e-01
4.918655164711295824e-01 1.380024644265660072e+00 2.777026834189800231e-01 -1.641268252221509960e-01
5.024432695135193638e-01 1.371489913075089939e+00 2.895696860656249982e-01 -1.674376352225669939e-01
5.130210225559090897e-01 1.362826691494219977e+00 3.014493797221490246e-01 -1.707437802686410100e-01
5.235987755982988157e-01 1.353970996782160041e+00 3.133361829361410167e-01 -1.740444549785450101e-01
5.759586531581287749e-01 1.299670469297879993e+00 3.737689305597040046e-01 -1.907002656197979984e-01
6.283185307179586232e-01 1.224980149373360083e+00 4.373168681953619741e-01 -2.082948561298919865e-01
6.806784082777884715e-01 1.157295380527799900e+00 5.037561428540450192e-01 -2.255580916769429900e-01
7.330382858376184307e-01 1.091073977810159912e+00 5.712847802588809643e-01 -2.401189350236490050e-01
7.853981633974482790e-01 1.025473552869270000e+00 6.395669130399489477e-01 -2.526653405008459918e-01
8.377580409572782383e-01 9.657886352886519976e-01 7.080402558592839846e-01 -2.652118792145010118e-01
8.901179185171080865e-01 9.056339346094079978e-01 7.755545917876499606e-01 -2.770798759171410053e-01
9.424777960769379348e-01 8.441952581511730225e-01 8.417375258370249913e-01 -2.885992720908759912e-01
9.948376736367678941e-01 7.812517119179149816e-01 9.062593552753499537e-01 -2.998634647446720147e-01
1.047197551196597631e+00 7.155908988776640278e-01 9.670465849534819469e-01 -3.110605452487339995e-01
1.099557428756427591e+00 6.480251741301840118e-01 1.024380477435899994e+00 -3.221092505646879767e-01
1.151917306316257550e+00 5.787921271729770112e-01 1.078179078642570010e+00 -3.330758637443069770e-01
1.204277183876087287e+00 5.077719144335319790e-01 1.127456112335700089e+00 -3.440424768155920243e-01
1.256637061435917246e+00 4.350717082512500222e-01 1.170085103357410006e+00 -3.544938448613659809e-01
1.308996938995747206e+00 3.616827177621330103e-01 1.207712920957459968e+00 -3.648288307134390229e-01
1.361356816555576943e+00 2.878411043340020070e-01 1.240158393453560048e+00 -3.750221346362430097e-01
1.413716694115406902e+00 2.140761689200970097e-01 1.264971879174809910e+00 -3.846854720069139977e-01
1.466076571675236861e+00 1.413033230696149889e-01 1.282615739053069914e+00 -3.936897908348580000e-01
1.518436449235066599e+00 6.983976395952140592e-02 1.294316349133910027e+00 -4.024961142327260211e-01
1.570796326794896558e+00 2.735755760476229906e-10 1.299999999977740073e+00 -4.113027924463690255e-01
1.623156204354726517e+00 -4.888783506477879792e-02 1.294316349099839947e+00 -4.159724512381239858e-01
1.675516081914556477e+00 -9.891232628582639907e-02 1.282615739011440104e+00 -4.206425288856189826e-01
1.727875959474386214e+00 -1.498533178395360099e-01 1.264971879369209962e+00 -4.247889788559199853e-01
1.780235837034216173e+00 -2.014887726292700076e-01 1.240158393647950108e+00 -4.272587642185650125e-01
1.832595714594046132e+00 -2.531779026413160105e-01 1.207712920821909952e+00 -4.283969713212260055e-01
1.884955592153875870e+00 -3.045501960145429732e-01 1.170085103161250029e+00 -4.291351536130589839e-01
1.937315469713705829e+00 -3.554403397794749786e-01 1.127456112656850085e+00 -4.295063195715930204e-01
1.989675347273535788e+00 -4.051544893846329987e-01 1.078179078282220038e+00 -4.282524217785840248e-01
2.042035224833365525e+00 -4.536176219575869806e-01 1.024380477358850072e+00 -4.269987128557800049e-01
2.094395102393195263e+00 -5.009136290661649893e-01 9.670465851494820519e-01 -4.259844098318890104e-01
2.146754979953025444e+00 -5.468761988300030463e-01 9.062593546306629833e-01 -4.254511551121579749e-01
2.199114857512855181e+00 -5.909366806219690238e-01 8.417375259604390481e-01 -4.250377296742949840e-01
2.251474735072684918e+00 -6.339437538952830131e-01 7.755545923148140508e-01 -4.257808961991850216e-01
2.303834612632515100e+00 -6.760520444870690149e-01 7.080402562153520485e-01 -4.281357922979699970e-01
2.356194490192344837e+00 -7.178314873714749522e-01 6.395669124490299673e-01 -4.336267647346639942e-01
2.408554367752174574e+00 -7.602387096852150083e-01 5.712847802542070363e-01 -4.391177371098820004e-01
2.460914245312004756e+00 -8.037325681017030155e-01 5.037561429810359925e-01 -4.468020152493240027e-01
2.513274122871834493e+00 -8.489075632852279840e-01 4.373168675213879864e-01 -4.578480233261449928e-01
2.565634000431664230e+00 -8.996629831974179980e-01 3.737689307646039905e-01 -4.692403992436839921e-01
2.617993877991494411e+00 -8.592850137248300157e-01 3.123772635008890131e-01 -4.777965784450010078e-01
2.670353755551324149e+00 -7.733565122555550175e-01 2.550379245988549926e-01 -4.586754347135300058e-01
2.722713633111153886e+00 -6.874280107862810185e-01 2.020029273158530092e-01 -4.367848403037479788e-01
2.775073510670984067e+00 -6.014995093170060203e-01 1.535091205283929949e-01 -4.148908565252780178e-01
2.827433388230813804e+00 -5.155710078477320213e-01 1.104608778255500023e-01 -4.260736878321960130e-01
2.879793265790643542e+00 -4.296425063784570231e-01 7.358999429691580330e-02 -4.537960549726269832e-01
