# Angle of attack [rad] 	 Lift coefficient [-] 	 Drag coefficient [-] 	 Moment coefficient [-]
-3.141592653589793116e+00 0.000000000000000000e+00 3.054149517943910083e-02 0.000000000000000000e+00
-3.089232776029963379e+00 9.050401813938610540e-02 3.169523011303729959e-02 1.200000003610469934e-01
-3.036872898470133197e+00 1.810080349215429929e-01 3.477261079329740240e-02 2.399999989225340136e-01
-2.984513020910303460e+00 2.715125503796059769e-01 3.974362379898700032e-02 3.600006586823850108e-01
-2.932153143350473723e+00 3.620206686943749919e-01 4.826125288815889813e-02 4.041091104142570112e-01
-2.879793265790643542e+00 4.525200888330440097e-01 7.202199132152979633e-02 4.102719933398999985e-01
-2.827433388230813804e+00 5.430290483398440005e-01 1.090145345073989941e-01 4.164355258830649831e-01
-2.775073510670984067e+00 6.335231367838369820e-01 1.521312517286629862e-01 4.280014765944900046e-01
-2.722713633111153886e+00 7.240345057951550478e-01 2.006757495482910103e-01 4.503807621100550107e-01
-2.670353755551324149e+00 8.145371287102789459e-01 2.537512380783970012e-01 4.727594480569839996e-01
-2.617993877991494411e+00 9.050401786855459818e-01 3.111310470648849802e-01 4.921545487027990107e-01
-2.565634000431664230e+00 9.463610637383590429e-01 3.725657569562780269e-01 4.817034624749280125e-01
-2.513274122871834493e+00 8.893051867882889594e-01 4.361579260948019732e-01 4.681510804543450033e-01
-2.460914245312004756e+00 8.389488030266170071e-01 5.026449131862880115e-01 4.548946039555519794e-01
-2.408554367752174574e+00 7.908589340967929759e-01 5.702233409575689915e-01 4.451887370820349910e-01
-2.356194490192344837e+00 7.444139047530830000e-01 6.385574338634639746e-01 4.380280099528909843e-01
-2.303834612632515100e+00 6.989581380895369955e-01 7.070856253534339997e-01 4.308672827435759967e-01
-2.251474735072684918e+00 6.533653389096040209e-01 7.746575224268299475e-01 4.273331250652310231e-01
-2.199114857512855181e+00 6.072052132195500107e-01 8.408999612786299815e-01 4.256627770417270029e-01
-2.146754979953025444e+00 5.603019239683699748e-01 9.054831973853719740e-01 4.253791858718730112e-01
-2.094395102393195263e+00 5.119151643370799531e-01 9.663345588463969627e-01 4.254968747782539862e-01
-2.042035224833365525e+00 4.624561540094550005e-01 1.023734255997680087e+00 4.262596837760109780e-01
-1.989675347273535788e+00 4.120626945383080164e-01 1.077600124409290094e+00 4.273522417239750126e-01
-1.937315469713705829e+00 3.606734255370939723e-01 1.126945997600760085e+00 4.284421908584010175e-01
-1.884955592153875870e+00 3.084088545442910112e-01 1.169645511084580036e+00 4.280682767330240002e-01
-1.832595714594046132e+00 2.558584967654720099e-01 1.207344803864150107e+00 4.273640527217120177e-01
-1.780235837034216173e+00 2.031841725322139913e-01 1.239862618996089960e+00 4.262828866156619934e-01
-1.727875959474386214e+00 1.508223208705299911e-01 1.264749413534010047e+00 4.239018473409770227e-01
-1.675516081914556477e+00 9.937868718565559534e-02 1.282467148708219984e+00 4.198834756298620019e-01
-1.623156204354726517e+00 4.903156729835290301e-02 1.294241944452340087e+00 4.153525657809640226e-01
-1.570796326794896558e+00 -1.920660228845580021e-10 1.299999999977440091e+00 4.108203018903400228e-01
-1.518436449235066599e+00 -4.903156700437730220e-02 1.294241944486860030e+00 4.012800719914130232e-01
-1.466076571675236861e+00 -9.937868704739050152e-02 1.282467148750050079e+00 3.917379896766680081e-01
-1.413716694115406902e+00 -1.508223212807530134e-01 1.264749413339040007e+00 3.818035899579420023e-01
-1.361356816555576943e+00 -2.031841729424370135e-01 1.239862618801119920e+00 3.706345050435280175e-01
-1.308996938995747206e+00 -2.558584965535160016e-01 1.207344803999989891e+00 3.585103070482180132e-01
-1.256637061435917246e+00 -3.084088542993400073e-01 1.169645511281079964e+00 3.461238992811079829e-01
-1.204277183876087287e+00 -3.606734258720100117e-01 1.126945997279160006e+00 3.335352404904730061e-01
-1.151917306316257550e+00 -4.120626941625100126e-01 1.077600124770150103e+00 3.200511796146769949e-01
-1.099557428756427591e+00 -4.624561539401800259e-01 1.023734256074819937e+00 3.065671186056779796e-01
-1.047197551196597631e+00 -5.119151644930970413e-01 9.663345586501890239e-01 2.931449838383710094e-01
-9.948376736367678941e-01 -5.603019234551980254e-01 9.054831980307389561e-01 2.797626179996680063e-01
-9.424777960769379348e-01 -6.072052133088630121e-01 8.408999611551000175e-01 2.664425184239579969e-01
-8.901179185171080865e-01 -6.533653392673089977e-01 7.746575218992080014e-01 2.532090046629200120e-01
-8.377580409572782383e-01 -6.989581383251739499e-01 7.070856249970810525e-01 2.400857950916809869e-01
-7.853981633974482790e-01 -7.444139043600139782e-01 6.385574344548570203e-01 2.271723039316179971e-01
-7.330382858376184307e-01 -8.274848764730969863e-01 5.702233409622460281e-01 2.142607096399899991e-01
-6.806784082777884715e-01 -9.049631542724190236e-01 5.026449130592050007e-01 1.853378412399230013e-01
-6.283185307179586232e-01 -9.774197675430520427e-01 4.361579267692409778e-01 1.346788497201329982e-01
-5.759586531581287749e-01 -1.049104979499180024e+00 3.725657567512329904e-01 8.151843927142179980e-02
-5.235987755982988157e-01 -1.172060482465540066e+00 2.792172647773369931e-01 5.180691368620950199e-02
-5.130210225559090897e-01 -1.200354627748910108e+00 2.573948589033600021e-01 4.816968334226989779e-02
-5.024432695135193638e-01 -1.228276166979769934e+00 2.357482346799300021e-01 4.453202866176819708e-02
-4.918655164711295824e-01 -1.255819739350120035e+00 2.141305291395660115e-01 4.089394562727809851e-02
-4.812877634287397455e-01 -1.262771060291179914e+00 2.014963926666580030e-01 3.759302984835469902e-02
-4.707100103863500196e-01 -1.260772324904829933e+00 1.926798618856599976e-01 3.443628991125249894e-02
-4.601322573439602381e-01 -1.258501188351959899e+00 1.840495002147899961e-01 3.127897267135110182e-02
-4.495545043015704567e-01 -1.255957706037750032e+00 1.754277603525790097e-01 2.812100430035060009e-02
-4.389767512591789544e-01 -1.253141933366590077e+00 1.668073913642059980e-01 2.496229853580349961e-02
-4.283989982167891730e-01 -1.247781703271400033e+00 1.581885547075929932e-01 2.180275429672899959e-02
-4.178212451743993916e-01 -1.241095421578249924e+00 1.497552819507149968e-01 1.873807555903490157e-02
-4.072434921320096657e-01 -1.229651585728489982e+00 1.429794093269330102e-01 1.653235736769309919e-02
-3.966657390896198843e-01 -1.218133424880339932e+00 1.362084913425609944e-01 1.432108428903029924e-02
-3.860879860472301028e-01 -1.206509261387789911e+00 1.294458324611059974e-01 1.210407370596480042e-02
-3.755102330048403769e-01 -1.194726435123619979e+00 1.226985156907599989e-01 9.881272668893589795e-03
-3.649324799624505400e-01 -1.185123478146830056e+00 1.158182145077610026e-01 7.653415913490050314e-03
-3.543547269200608141e-01 -1.175491750476610031e+00 1.088528216621919981e-01 5.461547397374540147e-03
-3.437769738776710327e-01 -1.164590011602200104e+00 1.024903541882660057e-01 3.633106083753940077e-03
-3.331992208352812512e-01 -1.152384447558999936e+00 9.667263749464620470e-02 2.182456268925530001e-03
-3.226214677928914698e-01 -1.139947350894279898e+00 9.085833556999370342e-02 7.666129989424859794e-04
-3.120437147505017439e-01 -1.127306288197819972e+00 8.517422222433750079e-02 -5.249673232871909529e-04
-3.014659617081119070e-01 -1.114474270921659960e+00 8.000384559509619853e-02 -1.296111535497480090e-03
-2.908882086657221810e-01 -1.101602717497280004e+00 7.483495539856599432e-02 -2.070078795183789844e-03
-2.803104556233323996e-01 -1.088698687081880001e+00 6.966733783874949626e-02 -2.846366797134390093e-03
-2.697327025809426182e-01 -1.078151243971080087e+00 6.483036193943879366e-02 -3.014918787731709834e-03
-2.591549495385511159e-01 -1.067860080325149896e+00 6.003005843174009926e-02 -3.117797800077989814e-03
-2.485771964961613345e-01 -1.057562184265109950e+00 5.522975934023539868e-02 -3.222441480625750070e-03
-2.379994434537715531e-01 -1.048520650485990080e+00 5.072965705067449677e-02 -3.227866177448360067e-03
-2.274216904113817994e-01 -1.040300707074319986e+00 4.643897255608830238e-02 -3.222847495189820177e-03
-2.168439373689920457e-01 -1.032057982369950055e+00 4.214455406861489922e-02 -3.047729826613249961e-03
-2.062661843266022643e-01 -1.015722718674930025e+00 3.814915878135020227e-02 -3.768204387792560041e-03
-1.956884312842125107e-01 -9.803083028475989558e-01 3.485595359185070241e-02 -6.818881196001330344e-03
-1.851106782418227292e-01 -9.446482178520280160e-01 3.156036739003360153e-02 -9.869756073619810263e-03
-1.745329251994329478e-01 -9.084988225414249996e-01 2.826246220074260171e-02 -1.317182838690329934e-02
-1.639551721570429998e-01 -8.402250106121700313e-01 2.617236732168520125e-02 -2.020013669770810011e-02
-1.533774191146532462e-01 -7.719181452058020421e-01 2.408200824397729867e-02 -2.714118627050990037e-02
-1.427996660722632982e-01 -7.035454165633969748e-01 2.199134699039740140e-02 -3.400132206536250062e-02
-1.322219130298735168e-01 -6.312761281503149746e-01 2.040264450963119938e-02 -4.013018147635129956e-02
-1.216441599874835688e-01 -5.571597095932939725e-01 1.902916083561160057e-02 -4.597051441027980023e-02
-1.110664069450936348e-01 -4.830413406635860052e-01 1.765567891072400072e-02 -5.181622073669440304e-02
-1.004886539027038533e-01 -4.051902244042219770e-01 1.653023499440019889e-02 -5.766589708614659748e-02
-8.991090086031391926e-02 -3.217375279759149831e-01 1.577688585400190135e-02 -6.351138667451239339e-02
-7.933314781792397130e-02 -2.382767680665749954e-01 1.502360906248050021e-02 -6.935275420751610409e-02
-6.875539477553420376e-02 -1.543171975171009902e-01 1.431398528208660016e-02 -7.514680699045030166e-02
-5.817764173314425580e-02 -6.593661893940930274e-02 1.399645627030019976e-02 -8.055806186233900601e-02
-4.759988869075449519e-02 2.247765634931920067e-02 1.367900613406189923e-02 -8.596443354738120268e-02
-3.702213564836454723e-02 1.109202039592289968e-01 1.336164787579749956e-02 -9.148851891838979955e-02
-2.644438260597477622e-02 1.987028432875879991e-01 1.319137261423589981e-02 -9.644907047933450051e-02
-1.586662956358486296e-02 2.862695507269950035e-01 1.307006426592200073e-02 -1.010790883918220029e-01
-5.288876521194919335e-03 3.728751021809780242e-01 1.301792930074299921e-02 -1.052978740747349956e-01
5.288876521194919335e-03 4.587970101034100079e-01 1.300088435845040032e-02 -1.092956743393100061e-01
1.586662956358486296e-02 5.440393129759629742e-01 1.301893017458270047e-02 -1.130647081260680031e-01
2.644438260597477622e-02 6.281592615040479943e-01 1.308493164958150073e-02 -1.164992044727640036e-01
3.702213564836454723e-02 7.118292028812469585e-01 1.316993021292410006e-02 -1.198068976273490016e-01
4.759988869075449519e-02 7.944968555252790443e-01 1.329702404547049993e-02 -1.228387742911459940e-01
5.817764173314425580e-02 8.764755714718760471e-01 1.345308322817569992e-02 -1.257055194324709912e-01
6.875539477553420376e-02 9.578907195512400552e-01 1.363284885058279987e-02 -1.284369819890630038e-01
7.933314781792415171e-02 1.038091622872669983e+00 1.386127629047020048e-02 -1.309099470422599998e-01
8.991090086031391926e-02 1.117811364667689933e+00 1.410875649414230007e-02 -1.332874128251269885e-01
1.004886539027038533e-01 1.196493466978790110e+00 1.439709659186699971e-02 -1.354641637044100011e-01
1.110664069450938152e-01 1.274195933625170030e+00 1.472670828415340027e-02 -1.374621602723820057e-01
1.216441599874835688e-01 1.351248113655789895e+00 1.508394086286789920e-02 -1.393410118488359883e-01
1.322219130298733503e-01 1.426168413725529938e+00 1.552149942814049985e-02 -1.408919031492910090e-01
1.427996660722632982e-01 1.500146359945369934e+00 1.599598560937159908e-02 -1.423011787624469948e-01
1.533774191146532462e-01 1.572183863751859922e+00 1.654649296807619852e-02 -1.434201327888869892e-01
1.639551721570429998e-01 1.641608115467060092e+00 1.719977086407590075e-02 -1.441868722663859903e-01
1.745329251994329478e-01 1.709666951405329982e+00 1.790916180569779997e-02 -1.447641103988870082e-01
1.851106782418227292e-01 1.773025786142850002e+00 1.886432539005999942e-02 -1.447963712430689887e-01
1.956884312842125107e-01 1.834592138809910011e+00 1.996893320999469992e-02 -1.446356777185739961e-01
2.062661843266022643e-01 1.889016555498570060e+00 2.135168177769510012e-02 -1.441156689436630112e-01
2.168439373689920457e-01 1.933842357686230029e+00 2.335357634127279911e-02 -1.432402800851760027e-01
2.274216904113817994e-01 1.973847637938199950e+00 2.570091560654910040e-02 -1.422084104678009997e-01
2.379994434537715531e-01 1.995860450240710016e+00 2.960142721181240055e-02 -1.411209304307519952e-01
2.485771964961613345e-01 2.012537099886220204e+00 3.410073445715430113e-02 -1.400261414575389995e-01
2.591549495385511159e-01 2.022290605450410172e+00 3.949354846666199709e-02 -1.388793588210980035e-01
2.697327025809426182e-01 2.028817560552409915e+00 4.540058271978990312e-02 -1.377585215332630120e-01
2.803104556233323996e-01 2.033246521813020014e+00 5.157539075451800237e-02 -1.366120007836910122e-01
2.908882086657221810e-01 2.027850321161530189e+00 5.872464296895679725e-02 -1.350947762093689941e-01
3.014659617081119070e-01 2.022396069423369802e+00 6.590271384997480053e-02 -1.335765876827690046e-01
3.120437147505017439e-01 2.016913671372440042e+00 7.310505079230369962e-02 -1.320572605588180015e-01
3.226214677928914698e-01 1.983916864323779894e+00 8.310228240265489508e-02 -1.310274048302219885e-01
3.331992208352812512e-01 1.944025422399400016e+00 9.380699189509339453e-02 -1.301603241977130065e-01
3.437769738776710327e-01 1.904114707378030014e+00 1.045251836969370018e-01 -1.293297631539540027e-01
3.543547269200608141e-01 1.868190425234590002e+00 1.160477191299069954e-01 -1.301248553264620078e-01
3.649324799624505400e-01 1.836257828089929989e+00 1.283705466464870049e-01 -1.325264229344340072e-01
3.755102330048403769e-01 1.804312897279430006e+00 1.407034439270369863e-01 -1.349324099335729998e-01
3.860879860472301028e-01 1.772353792601899958e+00 1.530493587315900073e-01 -1.373433159326379882e-01
3.966657390896198843e-01 1.740378288615640034e+00 1.654125137726230044e-01 -1.397597187622109938e-01
4.072434921320096657e-01 1.708383668259850108e+00 1.777991795803139929e-01 -1.421822903887760003e-01
4.178212451743993916e-01 1.676366579165470050e+00 1.898698384713179976e-01 -1.446118168660059933e-01
4.283989982167891730e-01 1.664783258946010092e+00 2.021262065112799933e-01 -1.483748539283870072e-01
4.389767512591789544e-01 1.654479743394680069e+00 2.144036003029130000e-01 -1.522879947492039865e-01
4.495545043015704567e-01 1.641056836032039890e+00 2.266817365077359869e-01 -1.562037613012429993e-01
4.601322573439602381e-01 1.627284501393680083e+00 2.389607252437750129e-01 -1.601222626294090123e-01
4.707100103863500196e-01 1.613155838982250012e+00 2.512406995393750009e-01 -1.640436135014090024e-01
4.812877634287397455e-01 1.598662302257860102e+00 2.635218216182820261e-01 -1.679679348376720005e-01
4.918655164711295824e-01 1.584834141559390064e+00 2.757185600728899733e-01 -1.717031841611809939e-01
5.024432695135193638e-01 1.573095692689830072e+00 2.877202043816389776e-01 -1.749902832198350078e-01
5.130210225559090897e-01 1.560510917790050023e+00 2.997259696179460087e-01 -1.782758847127990098e-01
5.235987755982988157e-01 1.546242661067249946e+00 3.117340434153180184e-01 -1.815597273662560018e-01
5.759586531581287749e-01 1.467657694230950050e+00 3.725657567512339896e-01 -1.981354415607469999e-01
6.283185307179586232e-01 1.368824001102560084e+00 4.361579267692409778e-01 -2.154525973788909976e-01
6.806784082777884715e-01 1.271683088589760091e+00 5.026449130592050007e-01 -2.324166777011670015e-01
7.330382858376184307e-01 1.167298477276569990e+00 5.702233409622460281e-01 -2.464791695333690136e-01
7.853981633974482790e-01 1.063448434800019937e+00 6.385574344548570203e-01 -2.583778087604259865e-01
8.377580409572782383e-01 9.985116261788200553e-01 7.070856249970810525e-01 -2.702781787865189966e-01
8.901179185171080865e-01 9.333790560961560123e-01 7.746575218992090006e-01 -2.815167700935389816e-01
9.424777960769379348e-01 8.674360190126619852e-01 8.408999611551000175e-01 -2.924168586456630248e-01
9.948376736367678941e-01 8.004313192217109574e-01 9.054831980307389561e-01 -3.030732494293679746e-01
1.047197551196597631e+00 7.313073778472819475e-01 9.663345586501900231e-01 -3.137101345447699807e-01
1.099557428756427591e+00 6.606516484859710214e-01 1.023734256074819937e+00 -3.242946482813169884e-01
1.151917306316257550e+00 5.886609916607280502e-01 1.077600124770150103e+00 -3.347503937058030066e-01
1.204277183876087287e+00 5.152477512457279696e-01 1.126945997279160006e+00 -3.452061390270019792e-01
1.256637061435917246e+00 4.405840775704850110e-01 1.169645511281079964e+00 -3.552906390785749990e-01
1.308996938995747206e+00 3.655121379335939946e-01 1.207344803999989891e+00 -3.652912832009099775e-01
1.361356816555576943e+00 2.902631042034810038e-01 1.239862618801119920e+00 -3.751733865271790203e-01
1.413716694115406902e+00 2.154604589725039876e-01 1.264749413339040007e+00 -3.846116689715879944e-01
1.466076571675236861e+00 1.419695529248430066e-01 1.282467148750050079e+00 -3.934755833106879930e-01
1.518436449235066599e+00 7.004509572053879696e-02 1.294241944486860030e+00 -4.021490000836039913e-01
1.570796326794896558e+00 2.743798890057779801e-10 1.299999999977440091e+00 -4.108203018937450213e-01
1.623156204354726517e+00 -4.903156729835270178e-02 1.294241944452340087e+00 -4.153525657809640226e-01
1.675516081914556477e+00 -9.937868718565590065e-02 1.282467148708219984e+00 -4.198834756298620019e-01
1.727875959474386214e+00 -1.508223208705309903e-01 1.264749413534010047e+00 -4.239018473409770227e-01
1.780235837034216173e+00 -2.031841725322139913e-01 1.239862618996089960e+00 -4.262828866156619934e-01
1.832595714594046132e+00 -2.558584967654720099e-01 1.207344803864150107e+00 -4.273640527217120177e-01
1.884955592153875870e+00 -3.084088545442900120e-01 1.169645511084580036e+00 -4.280682767330240002e-01
1.937315469713705829e+00 -3.606734255370950271e-01 1.126945997600760085e+00 -4.284421908584010175e-01
1.989675347273535788e+00 -4.120626945383090156e-01 1.077600124409290094e+00 -4.273522417239750126e-01
2.042035224833365525e+00 -4.624561540094550005e-01 1.023734255997680087e+00 -4.262596837760109780e-01
2.094395102393195263e+00 -5.119151643370809524e-01 9.663345588463969627e-01 -4.254968747782539862e-01
2.146754979953025444e+00 -5.603019239683699748e-01 9.054831973853719740e-01 -4.253791858718740104e-01
2.199114857512855181e+00 -6.072052132195500107e-01 8.408999612786299815e-01 -4.256627770417270029e-01
2.251474735072684918e+00 -6.533653389096050201e-01 7.746575224268289483e-01 -4.273331250652310231e-01
2.303834612632515100e+00 -6.989581380895379947e-01 7.070856253534330005e-01 -4.308672827435759967e-01
2.356194490192344837e+00 -7.444139047530830000e-01 6.385574338634639746e-01 -4.380280099528909843e-01
2.408554367752174574e+00 -7.908589340967939751e-01 5.702233409575679923e-01 -4.451887370820359902e-01
2.460914245312004756e+00 -8.389488030266180063e-01 5.026449131862870123e-01 -4.548946039555519794e-01
2.513274122871834493e+00 -8.893051867882889594e-01 4.361579260948019732e-01 -4.681510804543450033e-01
2.565634000431664230e+00 -9.463610637383600421e-01 3.725657569562780269e-01 -4.817034624749280125e-01
2.617993877991494411e+00 -9.050401786855449826e-01 3.111310470648849802e-01 -4.921545487027990107e-01
2.670353755551324149e+00 -8.145361607150449768e-01 2.537506561275009731e-01 -4.727592086928870119e-01
2.722713633111153886e+00 -7.240321427445449709e-01 2.006744203238750024e-01 -4.503801778142759726e-01
2.775073510670984067e+00 -6.335281247740439659e-01 1.521338465011869978e-01 -4.280027098423589971e-01
2.827433388230813804e+00 -5.430241068035449592e-01 1.090124300593249967e-01 -4.364351895036560069e-01
2.879793265790643542e+00 -4.525200888330450089e-01 7.202199132152989347e-02 -4.602719935064270018e-01
