# Angle of attack [rad] 	 Lift coefficient [-] 	 Drag coefficient [-] 	 Moment coefficient [-]
-3.141592653589793116e+00 0.000000000000000000e+00 1.365435082273849972e-02 0.000000000000000000e+00
-3.089232776029963379e+00 7.986098554050920229e-02 1.496925514732879922e-02 1.200000003610469934e-01
-3.036872898470133197e+00 1.597219698833959867e-01 1.847719848006380144e-02 2.399999989225340136e-01
-2.984513020910303460e+00 2.395833942592240084e-01 2.414593627286490060e-02 3.600006586823850108e-01
-2.932153143350473723e+00 3.194479978053599845e-01 3.726775623244989871e-02 3.968923117399679734e-01
-2.879793265790643542e+00 3.993049260578480086e-01 7.178856769423859474e-02 3.922313712966239985e-01
-2.827433388230813804e+00 4.791702718740630251e-01 1.128193577135700038e-01 3.875699395525979973e-01
-2.775073510670984067e+00 5.590224954250320177e-01 1.603991878070130106e-01 3.920034803853070238e-01
-2.722713633111153886e+00 6.388899673944220536e-01 2.140577175308980007e-01 4.146307590438240154e-01
-2.670353755551324149e+00 7.187497217853440201e-01 2.728224415233320155e-01 4.372551151915100021e-01
-2.617993877991494411e+00 7.986098530152669905e-01 3.364432897633909958e-01 4.576386156881679934e-01
-2.565634000431664230e+00 8.405325186453620478e-01 4.046426972303330261e-01 4.556130756024490136e-01
-2.513274122871834493e+00 8.065613120876270470e-01 4.753049368018599785e-01 4.513416671892819809e-01
-2.460914245312004756e+00 7.749385099271199895e-01 5.492506704627190262e-01 4.471549543621959888e-01
-2.408554367752174574e+00 7.432923365510170077e-01 6.244657127283650411e-01 4.443648870150290198e-01
-2.356194490192344837e+00 7.112020218068310085e-01 7.005710975969530185e-01 4.440820651277139763e-01
-2.303834612632515100e+00 6.772142834791300414e-01 7.769437571564890010e-01 4.436727664942889948e-01
-2.251474735072684918e+00 6.408126042836770342e-01 8.523023496871879878e-01 4.452655046336280176e-01
-2.199114857512855181e+00 6.033846177434679658e-01 9.262232306376919633e-01 4.478941067469610071e-01
-2.146754979953025444e+00 5.636739587139120156e-01 9.983370171305220309e-01 4.512679399258340274e-01
-2.094395102393195263e+00 5.204803046976179681e-01 1.066348322146420058e+00 4.545232789566769904e-01
-2.042035224833365525e+00 4.749587871398580075e-01 1.130557386505949946e+00 4.575205176437149857e-01
-1.989675347273535788e+00 4.273899762879250219e-01 1.190869503418950037e+00 4.603887583598190170e-01
-1.937315469713705829e+00 3.776100525866279978e-01 1.246189942581610088e+00 4.632567150919060239e-01
-1.884955592153875870e+00 3.255569395340749961e-01 1.294159075108630041e+00 4.636999844694699724e-01
-1.832595714594046132e+00 2.723367625634219857e-01 1.336596336973679966e+00 4.635955164971730103e-01
-1.780235837034216173e+00 2.181444425288319999e-01 1.373299165954620094e+00 4.629580000552749874e-01
-1.727875959474386214e+00 1.631793214389239965e-01 1.401549689502880058e+00 4.607176682184899730e-01
-1.675516081914556477e+00 1.082653220557470014e-01 1.421856677384180090e+00 4.564590206502909808e-01
-1.623156204354726517e+00 5.378956414588730028e-02 1.435578298449009971e+00 4.515696244548489946e-01
-1.570796326794896558e+00 -2.107040066357539896e-10 1.442631810621630040e+00 4.466801858262480218e-01
-1.518436449235066599e+00 -5.378956382338440090e-02 1.435578298491279936e+00 4.358787706307279963e-01
-1.466076571675236861e+00 -1.082653219073699963e-01 1.421856677432350002e+00 4.250773355198559922e-01
-1.413716694115406902e+00 -1.631793218695420100e-01 1.401549689281530009e+00 4.138030077480540081e-01
-1.361356816555576943e+00 -2.181444429594489864e-01 1.373299165733320004e+00 4.010154746240889856e-01
-1.308996938995747206e+00 -2.723367623460919984e-01 1.336596337126880085e+00 3.870262798061739895e-01
-1.256637061435917246e+00 -3.255569392894249736e-01 1.294159075329450070e+00 3.726883770802920104e-01
-1.204277183876087287e+00 -3.776100529110579807e-01 1.246189942221040070e+00 3.580447182194330114e-01
-1.151917306316257550e+00 -4.273899759238989904e-01 1.190869503823460018e+00 3.420474830180409986e-01
-1.099557428756427591e+00 -4.749587870751709739e-01 1.130557386592289992e+00 3.260502429611130126e-01
-1.047197551196597631e+00 -5.204803048369039953e-01 1.066348321927099940e+00 3.100133156558450009e-01
-9.948376736367678941e-01 -5.636739582558669692e-01 9.983370178517489979e-01 2.938970239493590153e-01
-9.424777960769379348e-01 -6.033846178188350118e-01 9.262232304997779497e-01 2.777446581773049816e-01
-8.901179185171080865e-01 -6.408126045635670343e-01 8.523023490986290085e-01 2.616926546988970204e-01
-8.377580409572782383e-01 -6.772142836598620264e-01 7.769437567592759608e-01 2.457819786958490016e-01
-7.853981633974482790e-01 -7.112020215171730442e-01 7.005710982559230082e-01 2.301462874890800037e-01
-7.330382858376184307e-01 -7.142232035162799919e-01 6.244657127335729863e-01 2.145105657879430028e-01
-6.806784082777884715e-01 -7.224090257952240357e-01 5.492506703213350105e-01 1.856752694597320064e-01
-6.283185307179586232e-01 -7.361798004131619999e-01 4.753049375515590036e-01 1.389798508450839909e-01
-5.759586531581287749e-01 -7.579687951813589564e-01 4.046426970025849834e-01 9.018476666550680199e-02
-5.235987755982988157e-01 -8.881043304339150124e-01 3.000314262219569983e-01 5.917823866920900178e-02
-5.130210225559090897e-01 -9.251566777273380060e-01 2.756204252689860024e-01 5.472768558281389945e-02
-5.024432695135193638e-01 -9.624293771944379960e-01 2.512567306220739871e-01 5.028590358663669740e-02
-4.918655164711295824e-01 -9.999909015506840415e-01 2.269198976882489949e-01 4.585130311370150258e-02
-4.812877634287397455e-01 -1.010578644446360030e+00 2.131649167681859969e-01 4.204569776464490288e-02
-4.707100103863500196e-01 -1.010398927882780074e+00 2.038342111347629937e-01 3.848948129996049988e-02
-4.601322573439602381e-01 -1.011591765547829924e+00 1.943430624987969868e-01 3.488023341753859752e-02
-4.495545043015704567e-01 -1.012785519207199947e+00 1.848933672472510004e-01 3.129337776251899655e-02
-4.389767512591789544e-01 -1.014192584645120077e+00 1.754436719957049862e-01 2.771272138807109875e-02
-4.283989982167891730e-01 -1.015626539567419995e+00 1.661930804350099933e-01 2.413206501362320094e-02
-4.178212451743993916e-01 -1.017389456069299980e+00 1.574580800809090020e-01 2.084657519494330022e-02
-4.072434921320096657e-01 -1.019746102351930084e+00 1.494510665142909922e-01 1.817905543788190040e-02
-3.966657390896198843e-01 -1.022103037059250097e+00 1.414438962240119890e-01 1.551138874802860008e-02
-3.860879860472301028e-01 -1.024460193457870094e+00 1.334365814764240099e-01 1.284360172279399963e-02
-3.755102330048403769e-01 -1.026817523927320064e+00 1.254291332903509915e-01 1.017571490542850017e-02
-3.649324799624505400e-01 -1.029174993574649921e+00 1.174215615917569983e-01 7.507744414852260406e-03
-3.543547269200608141e-01 -1.031532576248650024e+00 1.094138753459529961e-01 4.839703075868660199e-03
-3.437769738776710327e-01 -1.031945908479730001e+00 1.023274389308249932e-01 2.827303889635009952e-03
-3.331992208352812512e-01 -1.030416676935759890e+00 9.616233208324359572e-02 1.429100279828970097e-03
-3.226214677928914698e-01 -1.028889741567170057e+00 8.999722354854709783e-02 2.278559702324410124e-05
-3.120437147505017439e-01 -1.026862639217480000e+00 8.397806333839699655e-02 -1.285482678941049983e-03
-3.014659617081119070e-01 -1.022846695390269955e+00 7.854135534248320172e-02 -2.214698144032709991e-03
-2.908882086657221810e-01 -1.018864008939200039e+00 7.310223279733280011e-02 -3.130776060877370030e-03
-2.803104556233323996e-01 -1.014914701634819894e+00 6.766044044574109906e-02 -4.035337583961530125e-03
-2.697327025809426182e-01 -1.026742715997130073e+00 6.174369955478380134e-02 -4.060442789365820149e-03
-2.591549495385511159e-01 -1.041200477869199892e+00 5.574046440175380035e-02 -3.986321575353560069e-03
-2.485771964961613345e-01 -1.051446339141449915e+00 4.968684656441679781e-02 -3.910372180453380170e-03
-2.379994434537715531e-01 -1.056972836794670023e+00 4.429230165470059849e-02 -4.231021938084350391e-03
-2.274216904113817994e-01 -1.061137622143220050e+00 3.954299430414109917e-02 -4.867914258676139631e-03
-2.168439373689920457e-01 -1.066316783276360036e+00 3.479092672918249890e-02 -5.539336431585410378e-03
-2.062661843266022643e-01 -1.057813955676939921e+00 3.041896933549550000e-02 -8.066700787414020704e-03
-1.956884312842125107e-01 -1.014772632392890062e+00 2.693393579366340149e-02 -1.454755720504890062e-02
-1.851106782418227292e-01 -9.728717363733480061e-01 2.344890225183129950e-02 -2.102850895178640100e-02
-1.745329251994329478e-01 -9.300769388678179483e-01 1.996386870999910038e-02 -2.750946069852390138e-02
-1.639551721570429998e-01 -8.565408966397940471e-01 1.798454443248459836e-02 -3.443825775402639677e-02
-1.533774191146532462e-01 -7.856141203342430490e-01 1.597780066941140165e-02 -4.150912007518810232e-02
-1.427996660722632982e-01 -7.143538159767910400e-01 1.392794105667589932e-02 -4.874622076065519838e-02
-1.322219130298735168e-01 -6.369126388048580445e-01 1.271393733235240062e-02 -5.466547542339270094e-02
-1.216441599874835688e-01 -5.557548397186660161e-01 1.188675732338539959e-02 -5.971304938478459723e-02
-1.110664069450936348e-01 -4.748774739198799999e-01 1.105850427886630009e-02 -6.468549369637280333e-02
-1.004886539027038533e-01 -3.936070970293339966e-01 1.044499113657050039e-02 -6.917984057088930050e-02
-8.991090086031391926e-02 -3.116286875390389954e-01 1.014948133518000020e-02 -7.295921548054000449e-02
-7.933314781792397130e-02 -2.296594369998319896e-01 9.846700190505609449e-03 -7.673366679774690224e-02
-6.875539477553420376e-02 -1.478584222140719995e-01 9.556483927409899909e-03 -8.041403159247109689e-02
-5.817764173314425580e-02 -6.747095595482680008e-02 9.433117779455829285e-03 -8.334097036327429986e-02
-4.759988869075449519e-02 1.289902079323019916e-02 9.309532814704859702e-03 -8.629999416817479840e-02
-3.702213564836454723e-02 9.321698729448149590e-02 9.185722542049419570e-03 -8.942146658644170576e-02
-2.644438260597477622e-02 1.726427071692429871e-01 9.131638903206269406e-03 -9.210623121995449580e-02
-1.586662956358486296e-02 2.524441385321660181e-01 9.102554663952260039e-03 -9.467549049115370208e-02
-5.288876521194919335e-03 3.317003622532799789e-01 9.116166933547220630e-03 -9.706746156905579626e-02
5.288876521194919335e-03 4.100434300433630219e-01 9.152538773574619285e-03 -9.936974138900950271e-02
1.586662956358486296e-02 4.878572805955789793e-01 9.211666653275109654e-03 -1.015827949488759957e-01
2.644438260597477622e-02 5.653188897264560531e-01 9.308881127300109443e-03 -1.036594204902200056e-01
3.702213564836454723e-02 6.426247376353140250e-01 9.421464006201850719e-03 -1.056819182412749997e-01
4.759988869075449519e-02 7.193478762486029687e-01 9.568613023694730324e-03 -1.075859265292579969e-01
5.817764173314425580e-02 7.956343288866080110e-01 9.737723002700610780e-03 -1.094090693968020056e-01
6.875539477553420376e-02 8.715664088087959893e-01 9.924794366866659251e-03 -1.111659938487190025e-01
7.933314781792415171e-02 9.466344933732689926e-01 1.015750245447140029e-02 -1.127772493769319956e-01
8.991090086031391926e-02 1.021238384059030002e+00 1.042096958957599954e-02 -1.143212590058449996e-01
1.004886539027038533e-01 1.094724286866439966e+00 1.076132615482609974e-02 -1.157128740904779934e-01
1.110664069450938152e-01 1.167451973635990070e+00 1.112186828757379987e-02 -1.169933836279939965e-01
1.216441599874835688e-01 1.239680693264000100e+00 1.149604279891030048e-02 -1.181997370625469945e-01
1.322219130298733503e-01 1.310428702284679892e+00 1.192452507892280064e-02 -1.191995672760370051e-01
1.427996660722632982e-01 1.380245230375950038e+00 1.239967136175099995e-02 -1.200872965782689983e-01
1.533774191146532462e-01 1.448082070287989964e+00 1.298359228429929978e-02 -1.207385809124100068e-01
1.639551721570429998e-01 1.513952403841070105e+00 1.363753591127869931e-02 -1.211456556847800015e-01
1.745329251994329478e-01 1.578765021074479913e+00 1.432925504630929922e-02 -1.214210856829810031e-01
1.851106782418227292e-01 1.639198080734090013e+00 1.518103777871299999e-02 -1.211874895830259979e-01
1.956884312842125107e-01 1.697485429063440021e+00 1.611385357959600056e-02 -1.207268700211209939e-01
2.062661843266022643e-01 1.751782487503160013e+00 1.719588662048210023e-02 -1.198451404035349999e-01
2.168439373689920457e-01 1.799512351631959994e+00 1.856753614939499891e-02 -1.183932391914050003e-01
2.274216904113817994e-01 1.843923421905069970e+00 2.010708440912069989e-02 -1.166729066225360018e-01
2.379994434537715531e-01 1.878541326727179994e+00 2.217280799206969993e-02 -1.144632940171210062e-01
2.485771964961613345e-01 1.897797206874020093e+00 2.519157789339719969e-02 -1.114980226945990055e-01
2.591549495385511159e-01 1.895396517409720039e+00 2.992495625246180055e-02 -1.074946146002720010e-01
2.697327025809426182e-01 1.883747063859589899e+00 3.548939071863459888e-02 -1.047487838794839976e-01
2.803104556233323996e-01 1.866019811582440013e+00 4.173801590077610285e-02 -1.025392084285959987e-01
2.908882086657221810e-01 1.813910522397220060e+00 5.166139574780059807e-02 -1.016132649868420057e-01
3.014659617081119070e-01 1.761801233212010098e+00 6.158477559482519736e-02 -1.006724140265630035e-01
3.120437147505017439e-01 1.709691944026789923e+00 7.150815544184969952e-02 -9.971044004270640526e-02
3.226214677928914698e-01 1.652819684308999948e+00 8.355930696686339476e-02 -1.011154804773009980e-01
3.331992208352812512e-01 1.594756682210620058e+00 9.614240129854520478e-02 -1.031576179553460038e-01
3.437769738776710327e-01 1.536693680112249938e+00 1.087254956302270009e-01 -1.052586810232619963e-01
3.543547269200608141e-01 1.491541139496660007e+00 1.213748601507790015e-01 -1.082945601317479994e-01
3.649324799624505400e-01 1.459299058416539951e+00 1.340904948502039951e-01 -1.121939661500129942e-01
3.755102330048403769e-01 1.427056977336419896e+00 1.468061295496299878e-01 -1.160754856941550034e-01
3.860879860472301028e-01 1.394814896256300063e+00 1.595874920164689903e-01 -1.199422942344249982e-01
3.966657390896198843e-01 1.362572815176180008e+00 1.725786833121530084e-01 -1.237969771318649936e-01
4.072434921320096657e-01 1.330330734096049961e+00 1.854879305816400092e-01 -1.276416870367710066e-01
4.178212451743993916e-01 1.298088653015929905e+00 1.983372862523289926e-01 -1.314782622743879970e-01
4.283989982167891730e-01 1.282185833393030050e+00 2.108441936286800100e-01 -1.352364160244760027e-01
4.389767512591789544e-01 1.268839375551729987e+00 2.232732342892720101e-01 -1.389885384069869945e-01
4.495545043015704567e-01 1.257965155246099975e+00 2.356332306786780018e-01 -1.427436566269099927e-01
4.601322573439602381e-01 1.246634198156219897e+00 2.478775671494169996e-01 -1.465026219140539987e-01
4.707100103863500196e-01 1.233112933070060091e+00 2.608075237495610099e-01 -1.502665861544290049e-01
4.812877634287397455e-01 1.222032629903679890e+00 2.736177090217459806e-01 -1.540371350310089926e-01
4.918655164711295824e-01 1.210802736273220104e+00 2.870452435757570031e-01 -1.579329681884359959e-01
5.024432695135193638e-01 1.196403659914589968e+00 3.022550509984650025e-01 -1.621042170502730029e-01
5.130210225559090897e-01 1.181845091363270095e+00 3.172412083958299767e-01 -1.662754752748979992e-01
5.235987755982988157e-01 1.167340548929870048e+00 3.319568715491559852e-01 -1.704467507324849973e-01
5.759586531581287749e-01 1.108039312914069985e+00 4.046426970025849834e-01 -1.905166491478219870e-01
6.283185307179586232e-01 1.073945452936859946e+00 4.753049375515590036e-01 -2.095335184705250098e-01
6.806784082777884715e-01 1.049079551508810049e+00 5.492506703213350105e-01 -2.282975556625350122e-01
7.330382858376184307e-01 1.029965511756679941e+00 6.244657127335729863e-01 -2.449484951245430031e-01
7.853981633974482790e-01 1.016002887881670036e+00 7.005710982559230082e-01 -2.600241474876390235e-01
8.377580409572782383e-01 9.674489766569459581e-01 7.769437567592759608e-01 -2.750997018372580150e-01
8.901179185171080865e-01 9.154465779479530330e-01 8.523023490986290085e-01 -2.894919336316830183e-01
9.424777960769379348e-01 8.619780254554779697e-01 9.262232304997779497e-01 -3.035329902450599748e-01
9.948376736367678941e-01 8.052485117940959558e-01 9.983370178517489979e-01 -3.173115099760300262e-01
1.047197551196597631e+00 7.435432926241479779e-01 1.066348321927099940e+00 -3.309164373351179966e-01
1.099557428756427591e+00 6.785125529645299469e-01 1.130557386592289992e+00 -3.441394682137119965e-01
1.151917306316257550e+00 6.105571084627130496e-01 1.190869503823460018e+00 -3.571715488353859880e-01
1.204277183876087287e+00 5.394429327300830357e-01 1.246189942221040070e+00 -3.702036272319689791e-01
1.256637061435917246e+00 4.650813418420349787e-01 1.294159075329450070e+00 -3.822950196811100154e-01
1.308996938995747206e+00 3.890525176372729987e-01 1.336596337126880085e+00 -3.941739203787290036e-01
1.361356816555576943e+00 3.116349185134990041e-01 1.373299165733320004e+00 -4.058366565514370250e-01
1.413716694115406902e+00 2.331133169564889862e-01 1.401549689281530009e+00 -4.168213450527830100e-01
1.466076571675236861e+00 1.546647455819570027e-01 1.421856677432350002e+00 -4.269521929060530185e-01
1.518436449235066599e+00 7.684223403340599556e-02 1.435578298491279936e+00 -4.368161993995279824e-01
1.570796326794896558e+00 3.010055771426879858e-10 1.442631810621630040e+00 -4.466801858299199735e-01
1.623156204354726517e+00 -5.378956414588700191e-02 1.435578298449009971e+00 -4.515696244548489946e-01
1.675516081914556477e+00 -1.082653220557470014e-01 1.421856677384180090e+00 -4.564590206502909808e-01
1.727875959474386214e+00 -1.631793214389249957e-01 1.401549689502880058e+00 -4.607176682184899730e-01
1.780235837034216173e+00 -2.181444425288319999e-01 1.373299165954620094e+00 -4.629580000552749874e-01
1.832595714594046132e+00 -2.723367625634219857e-01 1.336596336973679966e+00 -4.635955164971730103e-01
1.884955592153875870e+00 -3.255569395340749961e-01 1.294159075108630041e+00 -4.636999844694699724e-01
1.937315469713705829e+00 -3.776100525866279978e-01 1.246189942581610088e+00 -4.632567150919060239e-01
1.989675347273535788e+00 -4.273899762879250219e-01 1.190869503418950037e+00 -4.603887583598190170e-01
2.042035224833365525e+00 -4.749587871398570083e-01 1.130557386505959938e+00 -4.575205176437149857e-01
2.094395102393195263e+00 -5.204803046976189673e-01 1.066348322146420058e+00 -4.545232789566769904e-01
2.146754979953025444e+00 -5.636739587139130148e-01 9.983370171305220309e-01 -4.512679399258340274e-01
2.199114857512855181e+00 -6.033846177434679658e-01 9.262232306376919633e-01 -4.478941067469610071e-01
2.251474735072684918e+00 -6.408126042836770342e-01 8.523023496871879878e-01 -4.452655046336280176e-01
2.303834612632515100e+00 -6.772142834791310406e-01 7.769437571564880018e-01 -4.436727664942889948e-01
2.356194490192344837e+00 -7.112020218068310085e-01 7.005710975969530185e-01 -4.440820651277139763e-01
2.408554367752174574e+00 -7.432923365510170077e-01 6.244657127283650411e-01 -4.443648870150290198e-01
2.460914245312004756e+00 -7.749385099271199895e-01 5.492506704627180270e-01 -4.471549543621959888e-01
2.513274122871834493e+00 -8.065613120876270470e-01 4.753049368018599785e-01 -4.513416671892819809e-01
2.565634000431664230e+00 -8.405325186453620478e-01 4.046426972303330261e-01 -4.556130756024490136e-01
2.617993877991494411e+00 -7.986098530152669905e-01 3.364432897633899966e-01 -4.576386156881679934e-01
2.670353755551324149e+00 -7.187488676237829832e-01 2.728217967253099840e-01 -4.372548732103689884e-01
2.722713633111153886e+00 -6.388878822322989759e-01 2.140562470122359950e-01 -4.146301683056949905e-01
2.775073510670984067e+00 -5.590268968408149686e-01 1.604020533389310110e-01 -3.920047273729079795e-01
2.827433388230813804e+00 -4.791659114493320160e-01 1.128170362588969966e-01 -4.075701941859939947e-01
2.879793265790643542e+00 -3.993049260578480086e-01 7.178856769423880291e-02 -4.422313714631500026e-01
