# Angle of attack [rad] 	 Lift coefficient [-] 	 Drag coefficient [-] 	 Moment coefficient [-]
-3.141592653589793116e+00 9.002302604908109338e-05 3.307985145046070108e-01 -9.002302604908109338e-05
-3.089232776029963379e+00 1.849205019862260047e-02 3.306261516210770024e-01 5.075754424294099884e-03
-3.036872898470133197e+00 3.725743965020839737e-02 3.301656450719350211e-01 1.050406309520180055e-02
-2.984513020910303460e+00 5.602275561512699842e-02 3.294192885440390128e-01 1.593233313732069986e-02
-2.932153143350473723e+00 7.471036509762009337e-02 3.303795764282240199e-01 1.564687364469029979e-02
-2.879793265790643542e+00 9.336066949896119904e-02 3.303492975179679880e-01 1.251888373800899915e-02
-2.827433388230813804e+00 1.120095681448570052e-01 3.278584874145220041e-01 9.405678656915109764e-03
-2.775073510670984067e+00 1.220167310159639973e-01 3.277043065798609933e-01 5.747234551106529706e-03
-2.722713633111153886e+00 1.147382417955089967e-01 3.328512700949289860e-01 1.214346467931490042e-03
-2.670353755551324149e+00 1.074610414311060053e-01 3.373585575812729775e-01 1.104120691828660000e-03
-2.617993877991494411e+00 1.001837781335919997e-01 3.412579634487329927e-01 1.015618275694639893e-03
-2.565634000431664230e+00 7.954328091822690516e-02 3.500094635137340204e-01 9.043242788258979955e-04
-2.513274122871834493e+00 7.488384283703479471e-02 3.529370936354059851e-01 8.025383625068150317e-04
-2.460914245312004756e+00 6.904907153588170365e-02 3.582222967855709927e-01 7.040662795349119729e-04
-2.408554367752174574e+00 6.464607940620040183e-02 3.641004825717650273e-01 6.644427829172460135e-04
-2.356194490192344837e+00 6.084793958481499870e-02 3.702470147441769832e-01 6.517820527628119705e-04
-2.303834612632515100e+00 5.684174499237940048e-02 3.763713438808249934e-01 6.391225191457290070e-04
-2.251474735072684918e+00 5.281906042259130324e-02 3.823786573744670236e-01 6.340863270682290135e-04
-2.199114857512855181e+00 4.884329428491079872e-02 3.880561568180029841e-01 6.515668687305099620e-04
-2.146754979953025444e+00 4.494406840034639861e-02 3.939905349190799821e-01 6.675032900637090094e-04
-2.094395102393195263e+00 4.122208661952599801e-02 4.005037709421749859e-01 6.831641560785249893e-04
-2.042035224833365525e+00 3.696472284514720069e-02 4.049137263250360275e-01 7.085630272829280315e-04
-1.989675347273535788e+00 3.282285890882020302e-02 4.098709562685159957e-01 7.338203134714879616e-04
-1.937315469713705829e+00 2.880312449572190042e-02 4.155306041870779898e-01 7.595338306405630124e-04
-1.884955592153875870e+00 2.467819485340819879e-02 4.194618220102189765e-01 7.815469174523370166e-04
-1.832595714594046132e+00 2.047161821663700046e-02 4.227882641166320066e-01 8.012730102979969630e-04
-1.780235837034216173e+00 1.626056184418250145e-02 4.269220037439370175e-01 8.219739746479349900e-04
-1.727875959474386214e+00 1.218026548361719925e-02 4.305308026012469869e-01 8.370929902889800512e-04
-1.675516081914556477e+00 8.352778725794160822e-03 4.318208508534300272e-01 8.387185730176979770e-04
-1.623156204354726517e+00 4.334272755863829985e-03 4.340407426893619913e-01 8.413702789102290355e-04
-1.570796326794896558e+00 8.923430977162689459e-05 4.372078867306770089e-01 8.441378351277949469e-04
-1.518436449235066599e+00 -4.155194084344160203e-03 4.340404075389360239e-01 8.056886871029639774e-04
-1.466076571675236861e+00 -8.173005086730199958e-03 4.318207471735310277e-01 7.674844888008250376e-04
-1.413716694115406902e+00 -1.199980162158790012e-02 4.305309299820149760e-01 7.302190215302960426e-04
-1.361356816555576943e+00 -1.607983770508469856e-02 4.269224689269590090e-01 6.823275590363760438e-04
-1.308996938995747206e+00 -2.029089396848759996e-02 4.227887284500350118e-01 6.302556115883800126e-04
-1.256637061435917246e+00 -2.449747039862710044e-02 4.194622862459280177e-01 5.793046555942339519e-04
-1.204277183876087287e+00 -2.862011117336070096e-02 4.155310243284420224e-01 5.276591464615090288e-04
-1.151917306316257550e+00 -3.263293716842489978e-02 4.098706149096990048e-01 4.746903907907430243e-04
-1.099557428756427591e+00 -3.676789110784400155e-02 4.049126254775680112e-01 4.227085925719510271e-04
-1.047197551196597631e+00 -4.101830624192050190e-02 4.005017861337890062e-01 3.717237509641740023e-04
-9.948376736367678941e-01 -4.474718127420439923e-02 3.939892181362639745e-01 3.271052217151580125e-04
-9.424777960769379348e-01 -4.865335383877349845e-02 3.880557496256040184e-01 2.833331361906009848e-04
-8.901179185171080865e-01 -5.263606784533159805e-02 3.823791568099960125e-01 2.405091980808310046e-04
-8.377580409572782383e-01 -5.666107050339599938e-02 3.763721841427379866e-01 2.061886458245110014e-04
-7.853981633974482790e-01 -6.066726598311299873e-02 3.702478519552370173e-01 1.759772510002800079e-04
-7.330382858376184307e-01 -6.446540507250550500e-02 3.641013153835089833e-01 1.462614647458420041e-04
-6.806784082777884715e-01 -6.886825756464200199e-02 3.582230671944269806e-01 1.311290842997520046e-04
-6.283185307179586232e-01 -7.470303416399970420e-02 3.529378541533230162e-01 1.509500563399170082e-04
-5.759586531581287749e-01 -7.936247088068429378e-02 3.500094727203230116e-01 3.185555539345759964e-03
-5.235987755982988157e-01 -8.208644550153279540e-02 3.462942626854250139e-01 6.329040179159590128e-03
-5.130210225559090897e-01 -8.050327404202370363e-02 3.475023808050419771e-01 5.968002038284899585e-03
-5.024432695135193638e-01 -7.892710491739039769e-02 3.486898721581500049e-01 5.606963897410200369e-03
-4.918655164711295824e-01 -7.735737513952130329e-02 3.496061785944860056e-01 5.245925756535509826e-03
-4.812877634287397455e-01 -7.848413707602079625e-02 3.495348411643620090e-01 4.830467377973690288e-03
-4.707100103863500196e-01 -8.077081307324060488e-02 3.485515743570939962e-01 4.391686045039569844e-03
-4.601322573439602381e-01 -8.306491567728570280e-02 3.475660093494349900e-01 3.952904712105450268e-03
-4.495545043015704567e-01 -8.536694539244760183e-02 3.465783157206699938e-01 3.514123379171339798e-03
-4.389767512591789544e-01 -8.767744873080700330e-02 3.455886467667320106e-01 3.075342046237219788e-03
-4.283989982167891730e-01 -8.999702362303710346e-02 3.445971414088350171e-01 2.636560713303100212e-03
-4.178212451743993916e-01 -9.235702675601760447e-02 3.435907604877529997e-01 2.189338974843970179e-03
-4.072434921320096657e-01 -9.500577290522149720e-02 3.424638751096529821e-01 1.666153548467150030e-03
-3.966657390896198843e-01 -9.766970390391549461e-02 3.413347326543110238e-01 1.142968122090330099e-03
-3.860879860472301028e-01 -1.003502322857320050e-01 3.402034294847189888e-01 6.197826957135030117e-04
-3.755102330048403769e-01 -1.028743674692190052e-01 3.390700565553779744e-01 9.037614745514629543e-05
-3.649324799624505400e-01 -1.053016749795509938e-01 3.379346997864989821e-01 -2.427156689633839918e-04
-3.543547269200608141e-01 -1.077289824898839954e-01 3.367974404075549932e-01 -8.156847278873530444e-04
-3.437769738776710327e-01 -1.084112847517249983e-01 3.358814481086270232e-01 -1.539220791744629925e-03
-3.331992208352812512e-01 -1.047938166653989978e-01 3.358840171550590004e-01 -1.745419144292959966e-03
-3.226214677928914698e-01 -1.062810512109050032e-01 3.353483958422779909e-01 -1.962417576126590166e-03
-3.120437147505017439e-01 -1.035812992828200052e-01 3.352664671460809931e-01 -2.102697537076880091e-03
-3.014659617081119070e-01 -1.034303504791830031e-01 3.349382124993460219e-01 -2.198150484863459989e-03
-2.908882086657221810e-01 -1.033911098715070004e-01 3.346236942389310132e-01 -2.275266848930669866e-03
-2.803104556233323996e-01 -1.004415412398790008e-01 3.345886984196470015e-01 -2.334160108815739893e-03
-2.697327025809426182e-01 -9.957767580869170132e-02 3.343004834822539961e-01 -2.443200781008009973e-03
-2.591549495385511159e-01 -9.785881619179090385e-02 3.340983052182789903e-01 -2.557663063929209966e-03
-2.485771964961613345e-01 -9.443704060861589367e-02 3.340425201546690093e-01 -2.642872472672789901e-03
-2.379994434537715531e-01 -9.134095999993359360e-02 3.339244326006329810e-01 -2.801569377109020074e-03
-2.274216904113817994e-01 -8.933124821783060276e-02 3.337186796305779968e-01 -2.907401848596189841e-03
-2.168439373689920457e-01 -8.422429986765110621e-02 3.337449324956819896e-01 -3.083425902439439897e-03
-2.062661843266022643e-01 -8.095927199845000255e-02 3.336162517233760005e-01 -3.200937564903210200e-03
-1.956884312842125107e-01 -7.615486038483880449e-02 3.335532609101590218e-01 -3.289280465563800080e-03
-1.851106782418227292e-01 -7.382629105966040384e-02 3.333361737224709853e-01 -3.219709248973140134e-03
-1.745329251994329478e-01 -7.203381783010009975e-02 3.332244205766020095e-01 -2.974615924146020024e-03
-1.639551721570429998e-01 -6.761106126444610398e-02 3.332001556785200158e-01 -2.976338247403169813e-03
-1.533774191146532462e-01 -6.035754948602790187e-02 3.332031810740950228e-01 -3.481382837161119820e-03
-1.427996660722632982e-01 -5.017954405539339774e-02 3.332670516636340174e-01 -4.274122323509430173e-03
-1.322219130298735168e-01 -4.167923008394509854e-02 3.333552028878289941e-01 -4.862752487239500182e-03
-1.216441599874835688e-01 -3.337787367097209967e-02 3.334131669567290124e-01 -5.464333895250839644e-03
-1.110664069450936348e-01 -2.446305704648630078e-02 3.334800489999409923e-01 -6.138857348301859744e-03
-1.004886539027038533e-01 -1.639584036279979895e-02 3.335848578203450265e-01 -6.633998917087299656e-03
-8.991090086031391926e-02 -8.013682220327080635e-03 3.336282023111589723e-01 -7.357345943972670374e-03
-7.933314781792397130e-02 -4.793739192778190207e-04 3.336969917516390272e-01 -7.895787818806510039e-03
-6.875539477553420376e-02 -5.179481945996039770e-05 3.337817305907559984e-01 -8.233626809752449954e-03
-5.817764173314425580e-02 4.785421958411529599e-03 3.338041811227330236e-01 -8.439861796685389425e-03
-4.759988869075449519e-02 1.624723670313599905e-02 3.338700896392600148e-01 -8.387501254654719518e-03
-3.702213564836454723e-02 2.093960145381380117e-02 3.339359826339610149e-01 -8.341419332209890763e-03
-2.644438260597477622e-02 2.516351291096560056e-02 3.339460025169729840e-01 -8.305669110009719983e-03
-1.586662956358486296e-02 2.897499266579489988e-02 3.339952610061889815e-01 -8.234836060823499601e-03
-5.288876521194919335e-03 3.252220045246279750e-02 3.340062123741249778e-01 -8.157823995657370597e-03
5.288876521194919335e-03 3.693698945500709790e-02 3.340357361894439880e-01 -8.129540319619019823e-03
1.586662956358486296e-02 4.196623311599610023e-02 3.340559178433489818e-01 -8.125544858646449251e-03
2.644438260597477622e-02 4.728738241741260034e-02 3.340721753505460079e-01 -8.161755204611029213e-03
3.702213564836454723e-02 5.234646507411490346e-02 3.340826332000769727e-01 -8.213959587600749152e-03
4.759988869075449519e-02 5.761182462908989721e-02 3.340991149101290025e-01 -8.233127681560460653e-03
5.817764173314425580e-02 6.281777211886910295e-02 3.341283303718449726e-01 -8.305250135877659950e-03
6.875539477553420376e-02 6.804929894371289367e-02 3.341199029424070099e-01 -8.345456540100109830e-03
7.933314781792415171e-02 7.330693861200239525e-02 3.341368583227060096e-01 -8.436545517036540473e-03
8.991090086031391926e-02 7.859149219443099799e-02 3.341542692824630012e-01 -8.481392340552649373e-03
1.004886539027038533e-01 8.387362961654659665e-02 3.341382619484539740e-01 -8.545116702184869448e-03
1.110664069450938152e-01 8.914138125166630455e-02 3.341633515097119922e-01 -8.600534441065210353e-03
1.216441599874835688e-01 9.446142055975019491e-02 3.341581161029880120e-01 -8.638704752176429302e-03
1.322219130298733503e-01 1.000190961827189945e-01 3.341424759188619809e-01 -8.727263172797539159e-03
1.427996660722632982e-01 1.051715834762430024e-01 3.341473277636680117e-01 -8.718877594352029275e-03
1.533774191146532462e-01 1.107975408252629967e-01 3.341180073662289862e-01 -8.766304552378180459e-03
1.639551721570429998e-01 1.156226420390390058e-01 3.340809824763050218e-01 -8.743777927095259389e-03
1.745329251994329478e-01 1.189098665035009939e-01 3.340349501120610243e-01 -8.585184678640420813e-03
1.851106782418227292e-01 1.234259279562929940e-01 3.339067955877300098e-01 -8.457410031125659616e-03
1.956884312842125107e-01 1.252356919878450103e-01 3.337446235651719828e-01 -7.738832182125439905e-03
2.062661843266022643e-01 1.271316549589719958e-01 3.335644766912009840e-01 -6.900292058487010084e-03
2.168439373689920457e-01 1.310348359156379983e-01 3.332624770762189770e-01 -6.208599338015020029e-03
2.274216904113817994e-01 1.366168050184289884e-01 3.329035817171980272e-01 -5.782709284411729871e-03
2.379994434537715531e-01 1.443124326853990058e-01 3.324226266116129813e-01 -5.637249154433999869e-03
2.485771964961613345e-01 1.495091778986880060e-01 3.321703199600090084e-01 -5.394081070153719862e-03
2.591549495385511159e-01 1.544170453951939914e-01 3.319458948583480229e-01 -5.184141739224539837e-03
2.697327025809426182e-01 1.592782639213140006e-01 3.317739780901060032e-01 -5.037577530104559755e-03
2.803104556233323996e-01 1.623981586131680033e-01 3.317814303924719876e-01 -4.869820200581170128e-03
2.908882086657221810e-01 1.672030798815659913e-01 3.317023824574110158e-01 -4.704274789337220194e-03
3.014659617081119070e-01 1.727072567017949867e-01 3.315852678325900138e-01 -4.636771743972280084e-03
3.120437147505017439e-01 1.736309472330060111e-01 3.319198627021319736e-01 -4.573241295140520121e-03
3.226214677928914698e-01 1.739575581935089987e-01 3.321366424067849765e-01 -4.320878139315779617e-03
3.331992208352812512e-01 1.756463749155640075e-01 3.322084180172940049e-01 -4.121044658387269972e-03
3.437769738776710327e-01 1.767429969090940078e-01 3.323629326137739759e-01 -4.015544668714919607e-03
3.543547269200608141e-01 1.757422576762119881e-01 3.326570992647450153e-01 -4.038054949863600224e-03
3.649324799624505400e-01 1.731006427508250123e-01 3.330151308815049727e-01 -4.042097322705290145e-03
3.755102330048403769e-01 1.714767317785469980e-01 3.332670725633449793e-01 -4.148500805079629976e-03
3.860879860472301028e-01 1.713488674798240019e-01 3.333465558225189862e-01 -4.372031633407690195e-03
3.966657390896198843e-01 1.722330312243990080e-01 3.333231403497889933e-01 -4.697066577235929803e-03
4.072434921320096657e-01 1.733963211569239937e-01 3.333236545947079743e-01 -5.059396681828090374e-03
4.178212451743993916e-01 1.745968637896209985e-01 3.333105861983309826e-01 -5.528663557571559736e-03
4.283989982167891730e-01 1.721515623661699912e-01 3.336603859917909864e-01 -6.131509641617459948e-03
4.389767512591789544e-01 1.675400336126509904e-01 3.344915192529069881e-01 -7.003530371263510385e-03
4.495545043015704567e-01 1.623440254197990040e-01 3.354869386880919846e-01 -7.984683618809759742e-03
4.601322573439602381e-01 1.570926904384050138e-01 3.365159701022020222e-01 -8.969136550422550369e-03
4.707100103863500196e-01 1.518778214209980104e-01 3.375223766708819739e-01 -9.956704997454400574e-03
4.812877634287397455e-01 1.466866692538000005e-01 3.385197110984640156e-01 -1.093776027099969961e-02
4.918655164711295824e-01 1.412337171028759941e-01 3.395149551263110244e-01 -1.192310471173339999e-02
5.024432695135193638e-01 1.355454508302539884e-01 3.405047978610220016e-01 -1.294487488753070029e-02
5.130210225559090897e-01 1.298239777224760028e-01 3.415282815089220048e-01 -1.398996199373040046e-02
5.235987755982988157e-01 1.255426645160039878e-01 3.427946156218840135e-01 -1.445307501148499971e-02
5.759586531581287749e-01 1.111289504709399995e-01 3.500424904513130264e-01 -1.568307054673509851e-02
6.283185307179586232e-01 1.049173481330940016e-01 3.544312487251820021e-01 -1.691435293479619933e-02
6.806784082777884715e-01 9.701210054837700048e-02 3.594222910631850176e-01 -1.819253254096779918e-02
7.330382858376184307e-01 9.136268011345509421e-02 3.650560643262200089e-01 -1.891681240367739866e-02
7.853981633974482790e-01 8.630624648047630076e-02 3.708466760855260169e-01 -1.961395961851560010e-02
8.377580409572782383e-01 8.094455863854389810e-02 3.766161170816499926e-01 -2.029479178178730109e-02
8.901179185171080865e-01 7.541741607030109928e-02 3.823791568099960125e-01 -2.108150662700329983e-02
9.424777960769379348e-01 6.974086144203900384e-02 3.880557496256040184e-01 -2.185653486187289982e-02
9.948376736367678941e-01 6.417364992499680065e-02 3.939892181362629753e-01 -2.266481238688750066e-02
1.047197551196597631e+00 5.885973825756950217e-02 4.005017861337890062e-01 -2.347172064406440051e-02
1.099557428756427591e+00 5.277683669852870074e-02 4.049126254775680112e-01 -2.440451509583759990e-02
1.151917306316257550e+00 4.685889359074289773e-02 4.098706149096990048e-01 -2.533589446079689833e-02
1.204277183876087287e+00 4.111542481317140285e-02 4.155310243284420224e-01 -2.626737126743260153e-02
1.256637061435917246e+00 3.522304135190319763e-02 4.194622862459280177e-01 -2.725753252979180169e-02
1.308996938995747206e+00 2.921473352908730142e-02 4.227887284500350118e-01 -2.826528400609479991e-02
1.361356816555576943e+00 2.320002608655050147e-02 4.269224689269590090e-01 -2.928936066384120115e-02
1.413716694115406902e+00 1.737104404534689853e-02 4.305309299820149760e-01 -3.029306524325680108e-02
1.466076571675236861e+00 1.190093561060960071e-02 4.318207471735310277e-01 -3.120528897868830170e-02
1.518436449235066599e+00 6.157930747861109673e-03 4.340404075389360239e-01 -3.214456790435740036e-02
1.570796326794896558e+00 9.122700042982129817e-05 4.372078867306770089e-01 -3.308404028501390343e-02
1.623156204354726517e+00 -4.154205548518550249e-03 4.340407426893619913e-01 -3.321988690416380341e-02
1.675516081914556477e+00 -8.172700018158059881e-03 4.318208508534300272e-01 -3.335574056712899832e-02
1.727875959474386214e+00 -1.200017508479279960e-02 4.305308026012469869e-01 -3.356841694194179909e-02
1.780235837034216173e+00 -1.608046861782649883e-02 4.269220037439370175e-01 -3.343790624440860088e-02
1.832595714594046132e+00 -2.029152474538100173e-02 4.227882641166320066e-01 -3.320816231458140200e-02
1.884955592153875870e+00 -2.449810113091099861e-02 4.194618220102189765e-01 -3.303289629767319768e-02
1.937315469713705829e+00 -2.862049432745469857e-02 4.155306041870779898e-01 -3.278374932449980295e-02
1.989675347273535788e+00 -3.263262526968210148e-02 4.098709562685159957e-01 -3.249604192088839660e-02
2.042035224833365525e+00 -3.676688430293410109e-02 4.049137263250360275e-01 -3.220843439577800171e-02
2.094395102393195263e+00 -4.101663443010680060e-02 4.005037709421749859e-01 -3.185479670113690320e-02
2.146754979953025444e+00 -4.474622863327579886e-02 3.939905349190799821e-01 -3.179358700957989753e-02
2.199114857512855181e+00 -4.865305872839029849e-02 3.880561568180029841e-01 -3.167236551721559767e-02
2.251474735072684918e+00 -5.263643036926429764e-02 3.823786573744670236e-01 -3.132675736057730087e-02
2.303834612632515100e+00 -5.666165207399020270e-02 3.763713438808249934e-01 -3.184600126156979932e-02
2.356194490192344837e+00 -6.066784758143790174e-02 3.702470147441769832e-01 -3.235486016359540029e-02
2.408554367752174574e+00 -6.446598662281960435e-02 3.641004825717650273e-01 -3.286373457260029912e-02
2.460914245312004756e+00 -6.886898013922039541e-02 3.582222967855709927e-01 -3.445445928916680139e-02
2.513274122871834493e+00 -7.470375781924959435e-02 3.529370936354059851e-01 -3.849423880749189980e-02
2.565634000431664230e+00 -7.936319437238409380e-02 3.500094635137340204e-01 -4.248257943357010291e-02
2.617993877991494411e+00 -1.000037320814940039e-01 3.412579634487329927e-01 -4.698443037796889987e-02
2.670353755551324149e+00 -1.072811380262519987e-01 3.373586398491160154e-01 -5.335825854550130254e-02
2.722713633111153886e+00 -1.145585439710099934e-01 3.328514580170719994e-01 -6.000703277396900182e-02
2.775073510670984067e+00 -1.218359499157680020e-01 3.277039396700520135e-01 -6.665580700243679824e-02
2.827433388230813804e+00 -1.118254240248919978e-01 3.278588195100409775e-01 -5.981297475424700305e-02
2.879793265790643542e+00 -9.316855710792920631e-02 3.303492975179679880e-01 -4.622308614042230229e-02
