# Angle of attack [rad] 	 Lift coefficient [-] 	 Drag coefficient [-] 	 Moment coefficient [-]
-3.141592653589793116e+00 0.000000000000000000e+00 4.070000000000000007e-02 0.000000000000000000e+00
-3.054326190990076739e+00 2.230000000000000038e-01 5.070000000000000201e-02 9.370000000000000551e-02
-2.967059728390360362e+00 4.050000000000000266e-01 1.054999999999999966e-01 1.701999999999999902e-01
-2.792526803190927165e+00 6.580000000000000293e-01 2.982000000000000206e-01 2.818999999999999839e-01
-2.705260340591210788e+00 7.329999999999999849e-01 4.121000000000000218e-01 3.212999999999999745e-01
-2.617993877991494411e+00 7.780000000000000249e-01 5.308000000000000496e-01 3.519999999999999796e-01
-2.530727415391778035e+00 7.950000000000000400e-01 6.502999999999999892e-01 3.754000000000000115e-01
-2.443460952792061214e+00 7.870000000000000329e-01 7.671999999999999931e-01 3.926000000000000045e-01
-2.356194490192344837e+00 7.570000000000000062e-01 8.784999999999999476e-01 4.046000000000000152e-01
-2.268928027592628460e+00 7.079999999999999627e-01 9.818999999999999950e-01 4.121000000000000218e-01
-2.181661564992912083e+00 6.410000000000000142e-01 1.075599999999999890e+00 4.159999999999999809e-01
-2.094395102393195263e+00 5.600000000000000533e-01 1.157999999999999918e+00 4.167000000000000148e-01
-2.007128639793478886e+00 4.670000000000000262e-01 1.227999999999999980e+00 4.146000000000000241e-01
-1.919862177193762509e+00 3.649999999999999911e-01 1.284699999999999953e+00 4.103999999999999870e-01
-1.832595714594046132e+00 2.550000000000000044e-01 1.327399999999999913e+00 4.041000000000000147e-01
-1.745329251994329534e+00 1.390000000000000124e-01 1.355699999999999905e+00 3.961000000000000076e-01
-1.658062789394613157e+00 2.100000000000000130e-02 1.369199999999999973e+00 3.866999999999999882e-01
-1.570796326794896558e+00 -9.800000000000000377e-02 1.368000000000000105e+00 3.759000000000000119e-01
-1.483529864195180181e+00 -2.159999999999999976e-01 1.352100000000000080e+00 3.639000000000000012e-01
-1.396263401595463582e+00 -3.310000000000000164e-01 1.321800000000000086e+00 3.508000000000000007e-01
-1.308996938995747206e+00 -4.410000000000000031e-01 1.277300000000000102e+00 3.366999999999999993e-01
-1.221730476396030607e+00 -5.440000000000000391e-01 1.219300000000000050e+00 3.215999999999999970e-01
-1.134464013796314230e+00 -6.380000000000000115e-01 1.148600000000000065e+00 3.054000000000000048e-01
-1.047197551196597631e+00 -7.199999999999999734e-01 1.066000000000000059e+00 2.883999999999999897e-01
-9.599310885968812546e-01 -7.880000000000000338e-01 9.727999999999999980e-01 2.702999999999999847e-01
-8.726646259971647668e-01 -8.399999999999999689e-01 8.705000000000000515e-01 2.511999999999999789e-01
-7.853981633974482790e-01 -8.750000000000000000e-01 7.610999999999999988e-01 2.310999999999999999e-01
-6.981317007977317912e-01 -8.890000000000000124e-01 6.465999999999999526e-01 2.099000000000000032e-01
-6.108652381980153034e-01 -8.800000000000000044e-01 5.299000000000000377e-01 1.875999999999999890e-01
-5.235987755982988157e-01 -8.459999999999999742e-01 4.141000000000000236e-01 1.640999999999999959e-01
-4.363323129985823834e-01 -7.840000000000000302e-01 3.029999999999999916e-01 1.396000000000000019e-01
-4.188790204786391191e-01 -7.680000000000000160e-01 2.817000000000000060e-01 1.345000000000000084e-01
-4.014257279586957994e-01 -7.510000000000000009e-01 2.607999999999999763e-01 1.293999999999999873e-01
-3.839724354387524796e-01 -7.329999999999999849e-01 2.404000000000000026e-01 1.242999999999999938e-01
-3.665191429188092154e-01 -7.139999999999999680e-01 2.205000000000000016e-01 1.190999999999999975e-01
-3.490658503988658956e-01 -6.929999999999999494e-01 2.011000000000000010e-01 1.139000000000000012e-01
-3.316125578789226314e-01 -6.710000000000000409e-01 1.822000000000000008e-01 1.086000000000000021e-01
-3.141592653589793116e-01 -6.480000000000000204e-01 1.640000000000000069e-01 1.032000000000000001e-01
-2.967059728390360474e-01 -6.239999999999999991e-01 1.464999999999999913e-01 9.750000000000000333e-02
-2.792526803190927276e-01 -6.009999999999999787e-01 1.300000000000000044e-01 8.980000000000000482e-02
-2.617993877991494078e-01 -5.789999999999999591e-01 1.145000000000000046e-01 7.989999999999999880e-02
-2.443460952792061436e-01 -5.590000000000000524e-01 1.000000000000000056e-01 6.819999999999999674e-02
-2.268928027592628516e-01 -5.390000000000000346e-01 8.669999999999999929e-02 5.469999999999999862e-02
-2.094395102393195596e-01 -5.190000000000000169e-01 7.439999999999999392e-02 3.969999999999999918e-02
-1.919862177193762398e-01 -4.989999999999999991e-01 6.329999999999999516e-02 2.340000000000000066e-02
-1.745329251994329478e-01 -4.799999999999999822e-01 5.340000000000000302e-02 6.000000000000000125e-03
-9.669124056048586380e-02 -3.850000000000000089e-01 2.450000000000000094e-02 -8.000000000000000167e-02
-8.796459430051420392e-02 -3.589999999999999858e-01 2.249999999999999917e-02 -8.000000000000000167e-02
-7.923794804054255791e-02 -3.599999999999999867e-01 1.959999999999999937e-02 -8.000000000000000167e-02
-7.051130178057091191e-02 -3.549999999999999822e-01 1.739999999999999880e-02 -8.000000000000000167e-02
-6.178465552059926591e-02 -3.069999999999999951e-01 1.619999999999999912e-02 -8.000000000000000167e-02
-5.305800926062761991e-02 -2.459999999999999964e-01 1.439999999999999961e-02 -8.000000000000000167e-02
-5.235987755982988989e-02 -2.399999999999999911e-01 2.400000000000000050e-02 -6.230000000000000121e-02
-4.363323129985823695e-02 -1.630000000000000060e-01 1.880000000000000074e-02 -6.740000000000000158e-02
-3.490658503988659095e-02 -9.099999999999999756e-02 1.600000000000000033e-02 -7.119999999999999940e-02
-2.617993877991494495e-02 -1.899999999999999953e-02 1.370000000000000037e-02 -7.459999999999999964e-02
-1.745329251994329547e-02 5.199999999999999761e-02 1.179999999999999973e-02 -7.779999999999999416e-02
-8.726646259971647737e-03 1.209999999999999964e-01 1.039999999999999952e-02 -8.060000000000000497e-02
0.000000000000000000e+00 1.960000000000000075e-01 9.400000000000000369e-03 -8.309999999999999332e-02
8.726646259971647737e-03 2.650000000000000133e-01 9.599999999999999159e-03 -8.630000000000000171e-02
1.745329251994329547e-02 3.350000000000000200e-01 9.799999999999999684e-03 -8.949999999999999623e-02
2.617993877991494495e-02 4.040000000000000258e-01 9.900000000000000813e-03 -9.239999999999999603e-02
3.490658503988659095e-02 4.719999999999999751e-01 1.000000000000000021e-02 -9.489999999999999825e-02
4.363323129985823695e-02 5.400000000000000355e-01 1.020000000000000073e-02 -9.729999999999999760e-02
5.235987755982988989e-02 6.079999999999999849e-01 1.030000000000000013e-02 -9.959999999999999409e-02
6.108652381980153590e-02 6.740000000000000435e-01 1.039999999999999952e-02 -1.015999999999999959e-01
6.981317007977318190e-02 7.419999999999999929e-01 1.050000000000000065e-02 -1.037000000000000005e-01
7.853981633974482790e-02 8.090000000000000524e-01 1.069999999999999944e-02 -1.057000000000000023e-01
8.726646259971647390e-02 8.750000000000000000e-01 1.080000000000000057e-02 -1.076000000000000012e-01
9.599310885968811990e-02 9.409999999999999476e-01 1.089999999999999997e-02 -1.093999999999999972e-01
1.047197551196597798e-01 1.006999999999999895e+00 1.099999999999999936e-02 -1.108999999999999986e-01
1.134464013796314258e-01 1.070999999999999952e+00 1.129999999999999928e-02 -1.117999999999999966e-01
1.221730476396030718e-01 1.133999999999999897e+00 1.149999999999999981e-02 -1.126999999999999946e-01
1.308996938995747039e-01 1.197999999999999954e+00 1.170000000000000033e-02 -1.137999999999999984e-01
1.396263401595463638e-01 1.260000000000000009e+00 1.200000000000000025e-02 -1.144000000000000017e-01
1.483529864195180237e-01 1.318000000000000060e+00 1.260000000000000009e-02 -1.136999999999999955e-01
1.570796326794896558e-01 1.368000000000000105e+00 1.329999999999999932e-02 -1.111999999999999933e-01
1.658062789394613157e-01 1.421999999999999931e+00 1.430000000000000021e-02 -1.100000000000000006e-01
1.745329251994329478e-01 1.475000000000000089e+00 1.559999999999999928e-02 -1.086000000000000021e-01
1.832595714594046077e-01 1.522999999999999909e+00 1.739999999999999880e-02 -1.063999999999999946e-01
1.919862177193762398e-01 1.570000000000000062e+00 1.940000000000000058e-02 -1.044000000000000067e-01
2.007128639793478997e-01 1.608999999999999986e+00 2.270000000000000143e-02 -1.013000000000000012e-01
2.094395102393195596e-01 1.641999999999999904e+00 2.690000000000000030e-02 -9.800000000000000377e-02
2.181661564992911917e-01 1.675000000000000044e+00 3.189999999999999780e-02 -9.529999999999999583e-02
2.268928027592628516e-01 1.699999999999999956e+00 3.980000000000000204e-02 -9.249999999999999889e-02
2.356194490192344837e-01 1.717000000000000082e+00 4.880000000000000310e-02 -8.959999999999999909e-02
2.443460952792061436e-01 1.711999999999999966e+00 6.140000000000000319e-02 -8.640000000000000457e-02
2.530727415391778035e-01 1.703000000000000069e+00 7.860000000000000320e-02 -8.400000000000000522e-02
2.705260340591210677e-01 1.671000000000000041e+00 1.173000000000000015e-01 -8.300000000000000433e-02
2.792526803190927276e-01 1.649000000000000021e+00 1.376999999999999891e-01 -8.480000000000000038e-02
2.879793265790643875e-01 1.620999999999999996e+00 1.600000000000000033e-01 -8.799999999999999489e-02
2.967059728390360474e-01 1.598000000000000087e+00 1.814000000000000057e-01 -9.260000000000000175e-02
3.054326190990076517e-01 1.570999999999999952e+00 2.041999999999999926e-01 -9.840000000000000135e-02
3.141592653589793116e-01 1.548999999999999932e+00 2.316000000000000003e-01 -1.052000000000000018e-01
3.316125578789226314e-01 1.544000000000000039e+00 2.718999999999999750e-01 -1.158000000000000002e-01
3.403392041388942357e-01 1.548999999999999932e+00 2.906000000000000250e-01 -1.213000000000000050e-01
3.490658503988658956e-01 1.564999999999999947e+00 3.084999999999999964e-01 -1.247999999999999943e-01
3.665191429188092154e-01 1.564999999999999947e+00 3.447000000000000064e-01 -1.317000000000000115e-01
3.839724354387524796e-01 1.562999999999999945e+00 3.820000000000000062e-01 -1.385000000000000120e-01
4.014257279586957994e-01 1.558000000000000052e+00 4.203000000000000069e-01 -1.451999999999999957e-01
4.188790204786391191e-01 1.552000000000000046e+00 4.592999999999999861e-01 -1.517999999999999905e-01
4.363323129985823834e-01 1.546000000000000041e+00 4.988000000000000211e-01 -1.582999999999999963e-01
4.537856055185257032e-01 1.538999999999999924e+00 5.386999999999999567e-01 -1.647000000000000131e-01
4.886921905584122872e-01 1.526999999999999913e+00 6.187000000000000277e-01 -1.769999999999999907e-01
5.235987755982988157e-01 1.522000000000000020e+00 6.977999999999999758e-01 -1.885999999999999899e-01
5.585053606381854552e-01 1.528999999999999915e+00 7.747000000000000552e-01 -1.993999999999999939e-01
6.108652381980153034e-01 1.544000000000000039e+00 8.869000000000000217e-01 -2.147999999999999909e-01
6.981317007977317912e-01 1.528999999999999915e+00 1.067099999999999937e+00 -2.391999999999999960e-01
7.853981633974482790e-01 1.471000000000000085e+00 1.231899999999999995e+00 -2.621999999999999886e-01
8.726646259971647668e-01 1.375999999999999890e+00 1.374700000000000033e+00 -2.838999999999999857e-01
9.599310885968812546e-01 1.249000000000000110e+00 1.489900000000000002e+00 -3.043000000000000149e-01
1.047197551196597631e+00 1.096999999999999975e+00 1.572799999999999976e+00 -3.235999999999999988e-01
1.134464013796314230e+00 9.280000000000000471e-01 1.620200000000000085e+00 -3.417000000000000037e-01
1.221730476396030607e+00 7.500000000000000000e-01 1.630200000000000093e+00 -3.585999999999999743e-01
1.308996938995747206e+00 5.699999999999999512e-01 1.603099999999999969e+00 -3.744999999999999996e-01
1.396263401595463582e+00 3.960000000000000187e-01 1.542300000000000004e+00 -3.891999999999999904e-01
1.483529864195180181e+00 2.369999999999999885e-01 1.459799999999999986e+00 -4.027999999999999914e-01
1.570796326794896558e+00 1.010000000000000064e-01 1.404099999999999904e+00 -4.151000000000000245e-01
1.658062789394613157e+00 -2.199999999999999872e-02 1.405299999999999994e+00 -4.260999999999999788e-01
1.745329251994329534e+00 -1.429999999999999882e-01 1.391399999999999970e+00 -4.356999999999999762e-01
1.832595714594046132e+00 -2.610000000000000098e-01 1.362500000000000044e+00 -4.436999999999999833e-01
1.919862177193762509e+00 -3.739999999999999991e-01 1.318799999999999972e+00 -4.497999999999999776e-01
2.007128639793478886e+00 -4.799999999999999822e-01 1.260799999999999921e+00 -4.537999999999999812e-01
2.094395102393195263e+00 -5.749999999999999556e-01 1.189100000000000046e+00 -4.552999999999999825e-01
2.181661564992912083e+00 -6.590000000000000302e-01 1.104600000000000026e+00 -4.540000000000000147e-01
2.268928027592628460e+00 -7.269999999999999796e-01 1.008599999999999941e+00 -4.491999999999999882e-01
2.356194490192344837e+00 -7.780000000000000249e-01 9.024999999999999689e-01 -4.405000000000000027e-01
2.443460952792061214e+00 -8.090000000000000524e-01 7.883000000000000007e-01 -4.269999999999999907e-01
2.530727415391778035e+00 -8.179999999999999494e-01 6.683999999999999941e-01 -4.077999999999999958e-01
2.617993877991494411e+00 -8.000000000000000444e-01 5.456999999999999629e-01 -3.820999999999999952e-01
2.705260340591210788e+00 -7.540000000000000036e-01 4.235999999999999766e-01 -3.483999999999999875e-01
2.792526803190927165e+00 -6.770000000000000462e-01 3.065999999999999837e-01 -3.054000000000000048e-01
2.967059728390360362e+00 -4.169999999999999818e-01 1.084999999999999992e-01 -1.842000000000000026e-01
3.054326190990076739e+00 -2.290000000000000091e-01 5.099999999999999672e-02 -1.013000000000000012e-01
3.141592653589793116e+00 0.000000000000000000e+00 4.070000000000000007e-02 0.000000000000000000e+00
