# Angle of attack [rad] 	 Lift coefficient [-] 	 Drag coefficient [-] 	 Moment coefficient [-]
-3.141592653589793116e+00 0.000000000000000000e+00 6.019999999999999657e-02 0.000000000000000000e+00
-3.054326190990076739e+00 2.179999999999999993e-01 6.990000000000000380e-02 9.339999999999999691e-02
-2.967059728390360362e+00 3.970000000000000195e-01 1.107000000000000067e-01 1.696999999999999897e-01
-2.792526803190927165e+00 6.420000000000000151e-01 3.044999999999999929e-01 2.812999999999999945e-01
-2.705260340591210788e+00 7.149999999999999689e-01 4.178999999999999937e-01 3.207999999999999741e-01
-2.617993877991494411e+00 7.570000000000000062e-01 5.354999999999999760e-01 3.516000000000000236e-01
-2.530727415391778035e+00 7.720000000000000195e-01 6.534999999999999698e-01 3.751999999999999780e-01
-2.443460952792061214e+00 7.620000000000000107e-01 7.684999999999999609e-01 3.926000000000000045e-01
-2.356194490192344837e+00 7.309999999999999831e-01 8.777000000000000357e-01 4.047999999999999932e-01
-2.268928027592628460e+00 6.800000000000000488e-01 9.788000000000000034e-01 4.126000000000000223e-01
-2.181661564992912083e+00 6.129999999999999893e-01 1.070000000000000062e+00 4.166000000000000258e-01
-2.094395102393195263e+00 5.320000000000000284e-01 1.149899999999999922e+00 4.176000000000000267e-01
-2.007128639793478886e+00 4.390000000000000013e-01 1.217400000000000038e+00 4.158000000000000029e-01
-1.919862177193762509e+00 3.370000000000000218e-01 1.271600000000000064e+00 4.117000000000000104e-01
-1.832595714594046132e+00 2.280000000000000082e-01 1.311800000000000077e+00 4.057000000000000051e-01
-1.745329251994329534e+00 1.140000000000000041e-01 1.337800000000000100e+00 3.978999999999999759e-01
-1.658062789394613157e+00 -2.000000000000000042e-03 1.349199999999999955e+00 3.886999999999999900e-01
-1.570796326794896558e+00 -1.199999999999999956e-01 1.346000000000000085e+00 3.780999999999999917e-01
-1.483529864195180181e+00 -2.359999999999999876e-01 1.328300000000000036e+00 3.663000000000000145e-01
-1.396263401595463582e+00 -3.489999999999999769e-01 1.296399999999999997e+00 3.533999999999999919e-01
-1.308996938995747206e+00 -4.560000000000000164e-01 1.250699999999999923e+00 3.393999999999999795e-01
-1.221730476396030607e+00 -5.570000000000000506e-01 1.191799999999999971e+00 3.244000000000000217e-01
-1.134464013796314230e+00 -6.470000000000000195e-01 1.120400000000000063e+00 3.084000000000000075e-01
-1.047197551196597631e+00 -7.269999999999999796e-01 1.037600000000000078e+00 2.913999999999999924e-01
-9.599310885968812546e-01 -7.920000000000000373e-01 9.445999999999999952e-01 2.732999999999999874e-01
-8.726646259971647668e-01 -8.419999999999999707e-01 8.428999999999999826e-01 2.543000000000000260e-01
-7.853981633974482790e-01 -8.739999999999999991e-01 7.345000000000000417e-01 2.341999999999999915e-01
-6.981317007977317912e-01 -8.860000000000000098e-01 6.215000000000000524e-01 2.129000000000000059e-01
-6.108652381980153034e-01 -8.750000000000000000e-01 5.067000000000000393e-01 1.905999999999999917e-01
-5.235987755982988157e-01 -8.389999999999999680e-01 3.931999999999999940e-01 1.670000000000000095e-01
-4.363323129985823834e-01 -7.770000000000000240e-01 2.848999999999999866e-01 1.421999999999999931e-01
-4.188790204786391191e-01 -7.610000000000000098e-01 2.641999999999999904e-01 1.370999999999999996e-01
-4.014257279586957994e-01 -7.439999999999999947e-01 2.439999999999999947e-01 1.320000000000000062e-01
-3.839724354387524796e-01 -7.249999999999999778e-01 2.242000000000000104e-01 1.267999999999999960e-01
-3.665191429188092154e-01 -7.059999999999999609e-01 2.048999999999999988e-01 1.214999999999999969e-01
-3.490658503988658956e-01 -6.850000000000000533e-01 1.860999999999999877e-01 1.161999999999999977e-01
-3.316125578789226314e-01 -6.620000000000000329e-01 1.686999999999999889e-01 1.097000000000000058e-01
-3.141592653589793116e-01 -6.350000000000000089e-01 1.532999999999999918e-01 1.011999999999999983e-01
-2.967059728390360474e-01 -6.049999999999999822e-01 1.398000000000000076e-01 9.070000000000000284e-02
-2.792526803190927276e-01 -5.709999999999999520e-01 1.280999999999999917e-01 7.839999999999999747e-02
-2.617993877991494078e-01 -5.340000000000000302e-01 1.183000000000000024e-01 6.460000000000000464e-02
-2.443460952792061436e-01 -4.939999999999999947e-01 1.101000000000000034e-01 4.939999999999999947e-02
-2.268928027592628516e-01 -4.520000000000000129e-01 1.035999999999999976e-01 3.300000000000000155e-02
-2.094395102393195596e-01 -4.069999999999999729e-01 9.859999999999999321e-02 1.559999999999999928e-02
-1.919862177193762398e-01 -3.599999999999999867e-01 9.510000000000000397e-02 -2.599999999999999881e-03
-1.745329251994329478e-01 -3.109999999999999987e-01 9.310000000000000220e-02 -2.129999999999999949e-02
-1.396263401595463638e-01 -2.079999999999999905e-01 9.299999999999999933e-02 -5.999999999999999778e-02
-1.047197551196597798e-01 -1.110000000000000014e-01 6.890000000000000291e-02 -5.000000000000000278e-02
-9.599310885968811990e-02 -8.999999999999999667e-02 6.140000000000000319e-02 -5.160000000000000003e-02
-8.726646259971647390e-02 -7.199999999999999456e-02 5.469999999999999862e-02 -5.319999999999999729e-02
-7.853981633974482790e-02 -6.500000000000000222e-02 4.800000000000000100e-02 -5.380000000000000060e-02
-6.981317007977318190e-02 -5.399999999999999939e-02 4.109999999999999765e-02 -5.439999999999999697e-02
-6.108652381980153590e-02 -1.700000000000000122e-02 3.490000000000000047e-02 -5.539999999999999786e-02
-5.235987755982988989e-02 3.000000000000000062e-03 2.989999999999999949e-02 -5.580000000000000238e-02
-4.363323129985823695e-02 1.400000000000000029e-02 2.549999999999999836e-02 -5.550000000000000072e-02
-3.490658503988659095e-02 8.999999999999999320e-03 1.980000000000000163e-02 -5.340000000000000302e-02
-2.617993877991494495e-02 4.000000000000000083e-03 1.640000000000000138e-02 -4.420000000000000318e-02
-1.745329251994329547e-02 3.599999999999999728e-02 1.469999999999999953e-02 -4.689999999999999725e-02
-8.726646259971647737e-03 7.299999999999999545e-02 1.370000000000000037e-02 -5.220000000000000334e-02
0.000000000000000000e+00 1.370000000000000107e-01 1.129999999999999928e-02 -5.729999999999999677e-02
8.726646259971647737e-03 2.129999999999999949e-01 1.140000000000000041e-02 -6.439999999999999891e-02
1.745329251994329547e-02 2.919999999999999818e-01 1.179999999999999973e-02 -7.180000000000000271e-02
2.617993877991494495e-02 3.689999999999999947e-01 1.220000000000000077e-02 -7.829999999999999460e-02
3.490658503988659095e-02 4.440000000000000058e-01 1.239999999999999956e-02 -8.350000000000000477e-02
4.363323129985823695e-02 5.140000000000000124e-01 1.239999999999999956e-02 -8.659999999999999643e-02
5.235987755982988989e-02 5.799999999999999600e-01 1.230000000000000017e-02 -8.870000000000000107e-02
6.108652381980153590e-02 6.450000000000000178e-01 1.200000000000000025e-02 -8.999999999999999667e-02
6.981317007977318190e-02 7.099999999999999645e-01 1.190000000000000085e-02 -9.139999999999999514e-02
7.853981633974482790e-02 7.760000000000000231e-01 1.220000000000000077e-02 -9.329999999999999405e-02
8.726646259971647390e-02 8.409999999999999698e-01 1.250000000000000069e-02 -9.470000000000000639e-02
9.599310885968811990e-02 9.040000000000000258e-01 1.290000000000000001e-02 -9.569999999999999341e-02
1.047197551196597798e-01 9.669999999999999707e-01 1.349999999999999985e-02 -9.669999999999999429e-02
1.134464013796314258e-01 1.026999999999999913e+00 1.439999999999999961e-02 -9.729999999999999760e-02
1.221730476396030718e-01 1.084000000000000075e+00 1.580000000000000154e-02 -9.719999999999999474e-02
1.308996938995747039e-01 1.139999999999999902e+00 1.739999999999999880e-02 -9.719999999999999474e-02
1.396263401595463638e-01 1.193000000000000060e+00 1.980000000000000163e-02 -9.679999999999999716e-02
1.483529864195180237e-01 1.241999999999999993e+00 2.309999999999999901e-02 -9.579999999999999627e-02
1.570796326794896558e-01 1.286999999999999922e+00 2.750000000000000014e-02 -9.479999999999999538e-02
1.658062789394613157e-01 1.332999999999999963e+00 3.230000000000000232e-02 -9.420000000000000595e-02
1.745329251994329478e-01 1.368000000000000105e+00 3.930000000000000160e-02 -9.260000000000000175e-02
1.832595714594046077e-01 1.399999999999999911e+00 4.750000000000000056e-02 -9.080000000000000571e-02
1.919862177193762398e-01 1.425000000000000044e+00 5.800000000000000294e-02 -8.899999999999999578e-02
2.007128639793478997e-01 1.449000000000000066e+00 6.909999999999999476e-02 -8.770000000000000018e-02
2.094395102393195596e-01 1.473000000000000087e+00 8.160000000000000586e-02 -8.699999999999999400e-02
2.181661564992911917e-01 1.493999999999999995e+00 9.729999999999999760e-02 -8.699999999999999400e-02
2.268928027592628516e-01 1.512999999999999901e+00 1.129000000000000004e-01 -8.759999999999999731e-02
2.356194490192344837e-01 1.538000000000000034e+00 1.287999999999999978e-01 -8.859999999999999820e-02
2.530727415391778035e-01 1.586999999999999966e+00 1.650000000000000078e-01 -9.170000000000000373e-02
2.617993877991494078e-01 1.614000000000000101e+00 1.844999999999999973e-01 -9.389999999999999736e-02
2.705260340591210677e-01 1.631000000000000005e+00 2.051999999999999935e-01 -9.660000000000000531e-02
2.792526803190927276e-01 1.649000000000000021e+00 2.250000000000000056e-01 -9.959999999999999409e-02
2.879793265790643875e-01 1.665999999999999925e+00 2.467000000000000026e-01 -1.030999999999999972e-01
2.967059728390360474e-01 1.681000000000000050e+00 2.684000000000000274e-01 -1.068999999999999950e-01
3.054326190990076517e-01 1.699000000000000066e+00 2.899999999999999800e-01 -1.110000000000000014e-01
3.141592653589793116e-01 1.719000000000000083e+00 3.120999999999999885e-01 -1.156999999999999973e-01
3.316125578789226314e-01 1.750999999999999890e+00 3.553999999999999937e-01 -1.242000000000000048e-01
3.403392041388942357e-01 1.766999999999999904e+00 3.783000000000000251e-01 -1.290999999999999925e-01
3.577924966588375555e-01 1.798000000000000043e+00 4.212000000000000188e-01 -1.383999999999999952e-01
3.665191429188092154e-01 1.810000000000000053e+00 4.415000000000000036e-01 -1.416000000000000036e-01
3.839724354387524796e-01 1.830000000000000071e+00 4.829999999999999849e-01 -1.479000000000000037e-01
4.014257279586957994e-01 1.846999999999999975e+00 5.256999999999999451e-01 -1.542000000000000037e-01
4.188790204786391191e-01 1.860999999999999988e+00 5.694000000000000172e-01 -1.602999999999999980e-01
4.363323129985823834e-01 1.872000000000000108e+00 6.140999999999999792e-01 -1.663999999999999924e-01
4.537856055185257032e-01 1.881000000000000005e+00 6.592999999999999972e-01 -1.723999999999999977e-01
4.886921905584122872e-01 1.893999999999999906e+00 7.512999999999999678e-01 -1.841000000000000136e-01
5.235987755982988157e-01 1.903999999999999915e+00 8.440999999999999615e-01 -1.953999999999999904e-01
5.585053606381854552e-01 1.915000000000000036e+00 9.364000000000000101e-01 -2.063000000000000111e-01
6.108652381980153034e-01 1.929000000000000048e+00 1.072200000000000042e+00 -2.220000000000000029e-01
6.981317007977317912e-01 1.903000000000000025e+00 1.287300000000000111e+00 -2.467999999999999916e-01
7.853981633974482790e-01 1.820000000000000062e+00 1.479600000000000026e+00 -2.701000000000000068e-01
8.726646259971647668e-01 1.689999999999999947e+00 1.640099999999999891e+00 -2.921000000000000263e-01
9.599310885968812546e-01 1.522000000000000020e+00 1.760899999999999910e+00 -3.126999999999999780e-01
1.047197551196597631e+00 1.322999999999999954e+00 1.836000000000000076e+00 -3.321000000000000063e-01
1.134464013796314230e+00 1.106000000000000094e+00 1.861399999999999944e+00 -3.502000000000000113e-01
1.221730476396030607e+00 8.800000000000000044e-01 1.834699999999999998e+00 -3.672000000000000264e-01
1.308996938995747206e+00 6.580000000000000293e-01 1.756699999999999928e+00 -3.830000000000000071e-01
1.396263401595463582e+00 4.490000000000000102e-01 1.633399999999999963e+00 -3.976999999999999980e-01
1.483529864195180181e+00 2.670000000000000151e-01 1.484699999999999909e+00 -4.112000000000000099e-01
1.570796326794896558e+00 1.239999999999999991e-01 1.387899999999999912e+00 -4.233999999999999986e-01
1.658062789394613157e+00 2.000000000000000042e-03 1.391199999999999992e+00 -4.343000000000000194e-01
1.745329251994329534e+00 -1.179999999999999938e-01 1.379499999999999948e+00 -4.436999999999999833e-01
1.832595714594046132e+00 -2.349999999999999867e-01 1.352800000000000002e+00 -4.514000000000000234e-01
1.919862177193762509e+00 -3.479999999999999760e-01 1.311399999999999899e+00 -4.572999999999999843e-01
2.007128639793478886e+00 -4.530000000000000138e-01 1.255700000000000038e+00 -4.610000000000000209e-01
2.094395102393195263e+00 -5.490000000000000435e-01 1.186399999999999899e+00 -4.622999999999999887e-01
2.181661564992912083e+00 -6.330000000000000071e-01 1.104100000000000081e+00 -4.606000000000000094e-01
2.268928027592628460e+00 -7.019999999999999574e-01 1.010199999999999987e+00 -4.554000000000000270e-01
2.356194490192344837e+00 -7.540000000000000036e-01 9.060000000000000275e-01 -4.461999999999999855e-01
2.443460952792061214e+00 -7.870000000000000329e-01 7.934999999999999831e-01 -4.323000000000000176e-01
2.530727415391778035e+00 -7.970000000000000417e-01 6.750000000000000444e-01 -4.127000000000000113e-01
2.617993877991494411e+00 -7.820000000000000284e-01 5.532000000000000250e-01 -3.862999999999999767e-01
2.705260340591210788e+00 -7.389999999999999902e-01 4.318000000000000171e-01 -3.521000000000000241e-01
2.792526803190927165e+00 -6.640000000000000346e-01 3.146999999999999797e-01 -3.084999999999999964e-01
2.967059728390360362e+00 -4.099999999999999756e-01 1.144000000000000017e-01 -1.857999999999999929e-01
3.054326190990076739e+00 -2.260000000000000064e-01 7.019999999999999851e-02 -1.021999999999999992e-01
3.141592653589793116e+00 0.000000000000000000e+00 6.019999999999999657e-02 0.000000000000000000e+00
