# Angle of attack [rad] 	 Lift coefficient [-] 	 Drag coefficient [-] 	 Moment coefficient [-]
-3.141592653589793116e+00 0.000000000000000000e+00 1.849999999999999908e-02 0.000000000000000000e+00
-3.054326190990076739e+00 3.940000000000000169e-01 3.320000000000000034e-02 1.978000000000000036e-01
-2.967059728390360362e+00 7.880000000000000338e-01 9.450000000000000067e-02 3.962999999999999856e-01
-2.792526803190927165e+00 6.700000000000000400e-01 2.808999999999999830e-01 2.737999999999999878e-01
-2.705260340591210788e+00 7.489999999999999991e-01 3.931999999999999940e-01 3.118000000000000216e-01
-2.617993877991494411e+00 7.970000000000000417e-01 5.111999999999999877e-01 3.412999999999999923e-01
-2.530727415391778035e+00 8.179999999999999494e-01 6.309000000000000163e-01 3.635999999999999788e-01
-2.443460952792061214e+00 8.129999999999999449e-01 7.485000000000000542e-01 3.799000000000000155e-01
-2.356194490192344837e+00 7.860000000000000320e-01 8.611999999999999655e-01 3.911000000000000032e-01
-2.268928027592628460e+00 7.389999999999999902e-01 9.665000000000000258e-01 3.980000000000000204e-01
-2.181661564992912083e+00 6.750000000000000444e-01 1.062500000000000000e+00 4.012000000000000011e-01
-2.094395102393195263e+00 5.959999999999999742e-01 1.147599999999999953e+00 4.013999999999999790e-01
-2.007128639793478886e+00 5.050000000000000044e-01 1.220599999999999907e+00 3.990000000000000213e-01
-1.919862177193762509e+00 4.030000000000000249e-01 1.280499999999999972e+00 3.942999999999999838e-01
-1.832595714594046132e+00 2.939999999999999836e-01 1.326500000000000012e+00 3.877999999999999781e-01
-1.745329251994329534e+00 1.789999999999999925e-01 1.358200000000000074e+00 3.795999999999999930e-01
-1.658062789394613157e+00 5.999999999999999778e-02 1.375199999999999978e+00 3.699999999999999956e-01
-1.570796326794896558e+00 -5.999999999999999778e-02 1.377399999999999958e+00 3.590999999999999748e-01
-1.483529864195180181e+00 -1.789999999999999925e-01 1.364800000000000013e+00 3.471000000000000196e-01
-1.396263401595463582e+00 -2.949999999999999845e-01 1.337599999999999900e+00 3.340000000000000191e-01
-1.308996938995747206e+00 -4.069999999999999729e-01 1.296200000000000019e+00 3.199000000000000177e-01
-1.221730476396030607e+00 -5.120000000000000107e-01 1.240899999999999892e+00 3.049000000000000044e-01
-1.134464013796314230e+00 -6.079999999999999849e-01 1.172500000000000098e+00 2.889999999999999791e-01
-1.047197551196597631e+00 -6.929999999999999494e-01 1.091900000000000093e+00 2.721999999999999975e-01
-9.599310885968812546e-01 -7.640000000000000124e-01 1.000199999999999978e+00 2.545000000000000040e-01
-8.726646259971647668e-01 -8.199999999999999512e-01 8.990000000000000213e-01 2.358999999999999986e-01
-7.853981633974482790e-01 -8.569999999999999840e-01 7.900000000000000355e-01 2.162999999999999923e-01
-6.981317007977317912e-01 -8.750000000000000000e-01 6.754000000000000004e-01 1.958000000000000018e-01
-6.108652381980153034e-01 -8.689999999999999947e-01 5.578999999999999515e-01 1.743999999999999995e-01
-5.235987755982988157e-01 -8.379999999999999671e-01 4.405000000000000027e-01 1.519999999999999962e-01
-4.363323129985823834e-01 -7.910000000000000364e-01 3.256000000000000005e-01 1.262000000000000066e-01
-4.188790204786391191e-01 -7.940000000000000391e-01 3.013000000000000123e-01 1.170000000000000068e-01
-4.014257279586957994e-01 -8.050000000000000488e-01 2.762000000000000011e-01 1.058999999999999941e-01
-3.839724354387524796e-01 -8.209999999999999520e-01 2.505999999999999894e-01 9.310000000000000220e-02
-3.665191429188092154e-01 -8.429999999999999716e-01 2.245999999999999941e-01 7.879999999999999505e-02
-3.490658503988658956e-01 -8.689999999999999947e-01 1.983000000000000040e-01 6.310000000000000331e-02
-3.316125578789226314e-01 -8.990000000000000213e-01 1.719999999999999862e-01 4.639999999999999680e-02
-3.141592653589793116e-01 -9.310000000000000497e-01 1.456999999999999962e-01 2.860000000000000042e-02
-2.967059728390360474e-01 -9.639999999999999680e-01 1.197000000000000008e-01 1.020000000000000073e-02
-2.792526803190927276e-01 -9.989999999999999991e-01 9.400000000000000022e-02 -8.800000000000000530e-03
-2.617993877991494078e-01 -1.032999999999999918e+00 6.890000000000000291e-02 -2.809999999999999998e-02
-2.530727415391778035e-01 -1.050000000000000044e+00 5.670000000000000040e-02 -3.780000000000000027e-02
-2.096140431645189817e-01 -9.529999999999999583e-01 2.709999999999999909e-02 -3.490000000000000047e-02
-1.919862177193762398e-01 -9.000000000000000222e-01 3.030000000000000054e-02 -3.610000000000000014e-02
-1.741838593490341036e-01 -8.269999999999999574e-01 2.869999999999999982e-02 -4.639999999999999680e-02
-1.417207352619395400e-01 -5.360000000000000320e-01 1.239999999999999956e-02 -8.210000000000000631e-02
-1.329940890019679078e-01 -4.670000000000000262e-01 1.089999999999999997e-02 -9.239999999999999603e-02
-1.240929098167968397e-01 -3.930000000000000160e-01 9.199999999999999845e-03 -1.015000000000000069e-01
-1.151917306316257439e-01 -3.230000000000000093e-01 8.300000000000000086e-03 -1.073000000000000065e-01
-1.134464013796314258e-01 -3.109999999999999987e-01 8.899999999999999925e-03 -1.082999999999999935e-01
-1.047197551196597798e-01 -2.449999999999999956e-01 8.200000000000000691e-03 -1.111999999999999933e-01
-9.599310885968811990e-02 -1.779999999999999916e-01 7.400000000000000328e-03 -1.145999999999999935e-01
-8.726646259971647390e-02 -1.130000000000000032e-01 6.899999999999999883e-03 -1.171999999999999986e-01
-7.853981633974482790e-02 -4.800000000000000100e-02 6.499999999999999702e-03 -1.194000000000000061e-01
-6.981317007977318190e-02 1.600000000000000033e-02 6.300000000000000044e-03 -1.213000000000000050e-01
-6.108652381980153590e-02 8.000000000000000167e-02 6.100000000000000387e-03 -1.232000000000000040e-01
-5.235987755982988989e-02 1.449999999999999900e-01 5.799999999999999600e-03 -1.252000000000000057e-01
-4.363323129985823695e-02 2.079999999999999905e-01 5.700000000000000205e-03 -1.267999999999999960e-01
-3.490658503988659095e-02 2.700000000000000178e-01 5.700000000000000205e-03 -1.282000000000000084e-01
-2.617993877991494495e-02 3.330000000000000182e-01 5.700000000000000205e-03 -1.297000000000000097e-01
-1.745329251994329547e-02 3.960000000000000187e-01 5.700000000000000205e-03 -1.310000000000000053e-01
-8.726646259971647737e-03 4.580000000000000182e-01 5.700000000000000205e-03 -1.323999999999999899e-01
0.000000000000000000e+00 5.210000000000000187e-01 5.700000000000000205e-03 -1.337000000000000133e-01
8.726646259971647737e-03 5.829999999999999627e-01 5.700000000000000205e-03 -1.350000000000000089e-01
1.745329251994329547e-02 6.450000000000000178e-01 5.799999999999999600e-03 -1.363000000000000045e-01
2.617993877991494495e-02 7.059999999999999609e-01 5.799999999999999600e-03 -1.373999999999999944e-01
3.490658503988659095e-02 7.680000000000000160e-01 5.899999999999999863e-03 -1.385000000000000120e-01
4.363323129985823695e-02 8.279999999999999583e-01 6.100000000000000387e-03 -1.395000000000000129e-01
5.235987755982988989e-02 8.880000000000000115e-01 6.300000000000000044e-03 -1.403000000000000080e-01
6.108652381980153590e-02 9.479999999999999538e-01 6.599999999999999964e-03 -1.406000000000000028e-01
6.981317007977318190e-02 9.959999999999999964e-01 7.100000000000000408e-03 -1.398000000000000076e-01
7.853981633974482790e-02 1.046000000000000041e+00 7.900000000000000772e-03 -1.390000000000000124e-01
8.726646259971647390e-02 1.094999999999999973e+00 8.999999999999999320e-03 -1.378000000000000058e-01
9.599310885968811990e-02 1.145000000000000018e+00 1.030000000000000013e-02 -1.368999999999999939e-01
1.047197551196597798e-01 1.191999999999999948e+00 1.129999999999999928e-02 -1.353000000000000036e-01
1.134464013796314258e-01 1.239000000000000101e+00 1.220000000000000077e-02 -1.338000000000000023e-01
1.221730476396030718e-01 1.282999999999999918e+00 1.310000000000000053e-02 -1.317000000000000115e-01
1.308996938995747039e-01 1.324000000000000066e+00 1.389999999999999916e-02 -1.290999999999999925e-01
1.396263401595463638e-01 1.358000000000000096e+00 1.469999999999999953e-02 -1.248999999999999971e-01
1.483529864195180237e-01 1.385000000000000009e+00 1.580000000000000154e-02 -1.213000000000000050e-01
1.570796326794896558e-01 1.403000000000000025e+00 1.810000000000000150e-02 -1.176999999999999991e-01
1.658062789394613157e-01 1.401000000000000023e+00 2.110000000000000070e-02 -1.141999999999999960e-01
1.745329251994329478e-01 1.358000000000000096e+00 2.549999999999999836e-02 -1.102999999999999953e-01
1.832595714594046077e-01 1.312999999999999945e+00 3.009999999999999828e-02 -1.066000000000000003e-01
1.919862177193762398e-01 1.286999999999999922e+00 3.470000000000000168e-02 -1.032000000000000001e-01
2.007128639793478997e-01 1.274000000000000021e+00 4.009999999999999676e-02 -1.001999999999999974e-01
2.094395102393195596e-01 1.272000000000000020e+00 4.680000000000000132e-02 -9.710000000000000575e-02
2.181661564992911917e-01 1.272999999999999909e+00 5.449999999999999983e-02 -9.400000000000000022e-02
2.268928027592628516e-01 1.272999999999999909e+00 6.329999999999999516e-02 -9.089999999999999469e-02
2.356194490192344837e-01 1.272999999999999909e+00 7.220000000000000029e-02 -8.830000000000000349e-02
2.443460952792061436e-01 1.272000000000000020e+00 8.060000000000000497e-02 -8.649999999999999356e-02
2.530727415391778035e-01 1.272999999999999909e+00 8.999999999999999667e-02 -8.540000000000000369e-02
2.617993877991494078e-01 1.274999999999999911e+00 9.869999999999999607e-02 -8.490000000000000324e-02
2.705260340591210677e-01 1.280999999999999917e+00 1.074999999999999983e-01 -8.469999999999999751e-02
2.792526803190927276e-01 1.284000000000000030e+00 1.170000000000000068e-01 -8.500000000000000611e-02
2.879793265790643875e-01 1.296000000000000041e+00 1.270000000000000018e-01 -8.580000000000000127e-02
2.967059728390360474e-01 1.306000000000000050e+00 1.368000000000000049e-01 -8.690000000000000502e-02
3.054326190990076517e-01 1.308000000000000052e+00 1.464000000000000024e-01 -8.830000000000000349e-02
3.141592653589793116e-01 1.308000000000000052e+00 1.562000000000000055e-01 -9.009999999999999953e-02
3.228859116189509715e-01 1.308000000000000052e+00 1.663999999999999924e-01 -9.220000000000000417e-02
3.316125578789226314e-01 1.308000000000000052e+00 1.769999999999999907e-01 -9.489999999999999825e-02
3.403392041388942357e-01 1.306999999999999940e+00 1.877999999999999947e-01 -9.800000000000000377e-02
3.490658503988658956e-01 1.310999999999999943e+00 1.986999999999999877e-01 -1.016999999999999987e-01
3.577924966588375555e-01 1.324999999999999956e+00 2.099999999999999922e-01 -1.058999999999999941e-01
3.665191429188092154e-01 1.324000000000000066e+00 2.214000000000000135e-01 -1.105000000000000010e-01
3.839724354387524796e-01 1.276999999999999913e+00 2.499000000000000110e-01 -1.171999999999999986e-01
4.014257279586957994e-01 1.229000000000000092e+00 2.786000000000000143e-01 -1.238999999999999962e-01
4.188790204786391191e-01 1.181999999999999940e+00 3.076999999999999735e-01 -1.305000000000000049e-01
4.363323129985823834e-01 1.135999999999999899e+00 3.371000000000000107e-01 -1.370000000000000107e-01
4.537856055185257032e-01 1.092999999999999972e+00 3.664000000000000035e-01 -1.433000000000000107e-01
4.886921905584122872e-01 1.016999999999999904e+00 4.245999999999999774e-01 -1.555999999999999883e-01
5.235987755982988157e-01 9.619999999999999662e-01 4.813000000000000056e-01 -1.670999999999999985e-01
5.585053606381854552e-01 9.370000000000000551e-01 5.355999999999999650e-01 -1.778000000000000136e-01
6.108652381980153034e-01 9.469999999999999529e-01 6.127000000000000224e-01 -1.922999999999999987e-01
6.981317007977317912e-01 9.499999999999999556e-01 7.396000000000000352e-01 -2.154000000000000081e-01
7.853981633974482790e-01 9.280000000000000471e-01 8.622999999999999554e-01 -2.373999999999999999e-01
8.726646259971647668e-01 8.840000000000000080e-01 9.780999999999999694e-01 -2.582999999999999741e-01
9.599310885968812546e-01 8.209999999999999520e-01 1.084600000000000009e+00 -2.782000000000000028e-01
1.047197551196597631e+00 7.399999999999999911e-01 1.179599999999999982e+00 -2.970999999999999752e-01
1.134464013796314230e+00 6.460000000000000187e-01 1.261700000000000044e+00 -3.149000000000000132e-01
1.221730476396030607e+00 5.400000000000000355e-01 1.329700000000000104e+00 -3.317999999999999838e-01
1.308996938995747206e+00 4.249999999999999889e-01 1.382700000000000040e+00 -3.476000000000000201e-01
1.396263401595463582e+00 3.039999999999999925e-01 1.420199999999999907e+00 -3.624999999999999889e-01
1.483529864195180181e+00 1.789999999999999925e-01 1.442299999999999915e+00 -3.763000000000000234e-01
1.570796326794896558e+00 5.299999999999999850e-02 1.451200000000000045e+00 -3.890000000000000124e-01
1.658062789394613157e+00 -7.299999999999999545e-02 1.447999999999999954e+00 -4.003999999999999782e-01
1.745329251994329534e+00 -1.980000000000000093e-01 1.429400000000000004e+00 -4.104999999999999760e-01
1.832595714594046132e+00 -3.190000000000000058e-01 1.395399999999999974e+00 -4.190999999999999726e-01
1.919862177193762509e+00 -4.339999999999999969e-01 1.346400000000000041e+00 -4.259999999999999898e-01
2.007128639793478886e+00 -5.410000000000000364e-01 1.282899999999999929e+00 -4.308000000000000163e-01
2.094395102393195263e+00 -6.370000000000000107e-01 1.205699999999999994e+00 -4.333000000000000185e-01
2.181661564992912083e+00 -7.199999999999999734e-01 1.115699999999999914e+00 -4.329999999999999960e-01
2.268928027592628460e+00 -7.870000000000000329e-01 1.014399999999999968e+00 -4.294000000000000039e-01
2.356194490192344837e+00 -8.359999999999999654e-01 9.032999999999999918e-01 -4.218999999999999972e-01
2.443460952792061214e+00 -8.639999999999999902e-01 7.844999999999999751e-01 -4.097999999999999976e-01
2.530727415391778035e+00 -8.689999999999999947e-01 6.604999999999999760e-01 -3.921999999999999931e-01
2.617993877991494411e+00 -8.469999999999999751e-01 5.345999999999999641e-01 -3.682000000000000273e-01
2.705260340591210788e+00 -7.950000000000000400e-01 4.102999999999999980e-01 -3.363999999999999768e-01
2.792526803190927165e+00 -7.109999999999999654e-01 2.922000000000000153e-01 -2.953999999999999959e-01
2.967059728390360362e+00 -7.880000000000000338e-01 9.690000000000000002e-02 -3.966000000000000081e-01
3.054326190990076739e+00 -3.940000000000000169e-01 3.339999999999999913e-02 -1.978000000000000036e-01
3.141592653589793116e+00 0.000000000000000000e+00 1.849999999999999908e-02 0.000000000000000000e+00
