# Angle of attack [rad] 	 Lift coefficient [-] 	 Drag coefficient [-] 	 Moment coefficient [-]
-3.141593e+00 0.000000e+00 5.608399e-02 1.471672e-03
-3.089233e+00 1.086898e-01 5.608399e-02 1.200454e-01
-3.036873e+00 2.183752e-01 6.730072e-02 2.399998e-01
-2.984513e+00 3.275630e-01 1.009513e-01 3.600004e-01
-2.932153e+00 4.364672e-01 1.346333e-01 3.191700e-01
-2.879793e+00 5.452295e-01 1.683311e-01 1.979259e-01
-2.827433e+00 6.539931e-01 2.020287e-01 7.667988e-02
-2.775074e+00 7.275039e-01 2.423100e-01 -7.274503e-03
-2.722714e+00 7.311108e-01 2.957587e-01 -1.729020e-02
-2.670354e+00 7.343196e-01 3.492073e-01 -2.719050e-02
-2.617994e+00 7.365232e-01 4.026560e-01 -3.536204e-02
-2.565634e+00 7.198818e-01 4.724229e-01 -1.912834e-02
-2.513274e+00 7.032402e-01 5.421899e-01 -2.894382e-03
-2.460914e+00 6.865980e-01 6.119571e-01 1.323521e-02
-2.408554e+00 6.663026e-01 6.845557e-01 2.924088e-02
-2.356194e+00 6.441806e-01 7.585700e-01 4.520613e-02
-2.303835e+00 6.220582e-01 8.325845e-01 6.117447e-02
-2.251475e+00 5.963207e-01 9.049890e-01 7.723466e-02
-2.199115e+00 5.633526e-01 9.741733e-01 9.347380e-02
-2.146755e+00 5.303848e-01 1.043357e+00 1.097138e-01
-2.094395e+00 4.974171e-01 1.112540e+00 1.259550e-01
-2.042035e+00 4.536344e-01 1.168371e+00 1.413390e-01
-1.989675e+00 4.098519e-01 1.224201e+00 1.567235e-01
-1.937315e+00 3.660697e-01 1.280031e+00 1.721082e-01
-1.884956e+00 3.171777e-01 1.322342e+00 1.858414e-01
-1.832596e+00 2.657307e-01 1.357893e+00 1.987492e-01
-1.780236e+00 2.142837e-01 1.393444e+00 2.116568e-01
-1.727876e+00 1.619871e-01 1.420736e+00 2.232018e-01
-1.675516e+00 1.079915e-01 1.431511e+00 2.320208e-01
-1.623156e+00 5.399593e-02 1.442286e+00 2.408397e-01
-1.570796e+00 3.370039e-07 1.453060e+00 2.496585e-01
-1.518436e+00 -5.399587e-02 1.442286e+00 2.544945e-01
-1.466077e+00 -1.079917e-01 1.431511e+00 2.593436e-01
-1.413717e+00 -1.619867e-01 1.420737e+00 2.642056e-01
-1.361357e+00 -2.142834e-01 1.393444e+00 2.657958e-01
-1.308997e+00 -2.657310e-01 1.357893e+00 2.657559e-01
-1.256637e+00 -3.171775e-01 1.322342e+00 2.657271e-01
-1.204277e+00 -3.660694e-01 1.280032e+00 2.644383e-01
-1.151917e+00 -4.098520e-01 1.224201e+00 2.606173e-01
-1.099557e+00 -4.536347e-01 1.168371e+00 2.568059e-01
-1.047198e+00 -4.974173e-01 1.112540e+00 2.530043e-01
-9.948377e-01 -5.303850e-01 1.043357e+00 2.474007e-01
-9.424778e-01 -5.633528e-01 9.741728e-01 2.418065e-01
-8.901179e-01 -5.963209e-01 9.049885e-01 2.362214e-01
-8.377580e-01 -6.236450e-01 8.326331e-01 2.309565e-01
-7.853982e-01 -6.481473e-01 7.586922e-01 2.258580e-01
-7.330383e-01 -6.678894e-01 6.846043e-01 2.224750e-01
-6.806784e-01 -6.868027e-01 6.109107e-01 2.197364e-01
-6.283185e-01 -7.034784e-01 5.388170e-01 2.192805e-01
-5.759587e-01 -7.195724e-01 4.693447e-01 2.222046e-01
-5.235988e-01 -7.365233e-01 4.026556e-01 2.289138e-01
-5.130210e-01 -7.404283e-01 3.898571e-01 2.312952e-01
-5.024433e-01 -7.443333e-01 3.770587e-01 2.336766e-01
-4.918655e-01 -7.482383e-01 3.642602e-01 2.360580e-01
-4.812878e-01 -7.526136e-01 3.518710e-01 2.391725e-01
-4.707100e-01 -7.571906e-01 3.396571e-01 2.426013e-01
-4.601323e-01 -7.617675e-01 3.274432e-01 2.460300e-01
-4.495545e-01 -7.667498e-01 3.154876e-01 2.500086e-01
-4.389768e-01 -7.723400e-01 3.039193e-01 2.548119e-01
-4.283990e-01 -7.779303e-01 2.923510e-01 2.596152e-01
-4.178212e-01 -7.838313e-01 2.808457e-01 2.633683e-01
-4.072435e-01 -7.925289e-01 2.699070e-01 2.576696e-01
-3.966657e-01 -8.012264e-01 2.589683e-01 2.514771e-01
-3.860880e-01 -8.099239e-01 2.480296e-01 2.459071e-01
-3.755102e-01 -8.202358e-01 2.371737e-01 2.311689e-01
-3.649325e-01 -8.296226e-01 2.263386e-01 2.137137e-01
-3.543547e-01 -8.392133e-01 2.155034e-01 1.962586e-01
-3.437770e-01 -8.493429e-01 2.046708e-01 1.788117e-01
-3.331992e-01 -8.597236e-01 1.938408e-01 1.613731e-01
-3.226215e-01 -8.693556e-01 1.828171e-01 1.438488e-01
-3.120437e-01 -8.788415e-01 1.715072e-01 1.265230e-01
-3.014660e-01 -8.883041e-01 1.603447e-01 1.092646e-01
-2.908882e-01 -8.972268e-01 1.492992e-01 9.193202e-02
-2.803105e-01 -9.057687e-01 1.383522e-01 7.453462e-02
-2.697327e-01 -9.147693e-01 1.275320e-01 5.670508e-02
-2.591549e-01 -9.242245e-01 1.167811e-01 3.863156e-02
-2.485772e-01 -9.349332e-01 1.061076e-01 2.029040e-02
-2.379994e-01 -9.465800e-01 9.545496e-02 2.581557e-03
-2.274217e-01 -9.593765e-01 8.482105e-02 -1.512777e-02
-2.168439e-01 -9.491372e-01 7.230142e-02 -2.452077e-02
-2.062662e-01 -9.335113e-01 6.030724e-02 -3.144014e-02
-1.956884e-01 -9.074126e-01 4.919698e-02 -3.360765e-02
-1.851107e-01 -8.743587e-01 3.987507e-02 -3.770198e-02
-1.745329e-01 -8.374362e-01 3.157132e-02 -4.283443e-02
-1.639552e-01 -7.973600e-01 2.497483e-02 -4.781673e-02
-1.533774e-01 -7.469181e-01 1.901068e-02 -5.491424e-02
-1.427997e-01 -6.763852e-01 1.414303e-02 -6.557410e-02
-1.322219e-01 -5.975488e-01 1.165002e-02 -7.405784e-02
-1.216442e-01 -5.146872e-01 1.027946e-02 -8.156946e-02
-1.110664e-01 -4.297833e-01 9.371006e-03 -8.899726e-02
-1.004887e-01 -3.449857e-01 8.722545e-03 -9.567432e-02
-8.991090e-02 -2.603421e-01 8.366288e-03 -1.012941e-01
-7.933315e-02 -1.772840e-01 8.150492e-03 -1.055742e-01
-6.875539e-02 -9.499675e-02 7.983993e-03 -1.093278e-01
-5.817764e-02 -1.454882e-02 7.795172e-03 -1.124771e-01
-4.759989e-02 6.573631e-02 7.634465e-03 -1.152442e-01
-3.702214e-02 1.453328e-01 7.511053e-03 -1.179827e-01
-2.644438e-02 2.236727e-01 7.448279e-03 -1.204317e-01
-1.586663e-02 3.009788e-01 7.431576e-03 -1.227121e-01
-5.288877e-03 3.760989e-01 7.510064e-03 -1.247674e-01
5.288877e-03 4.514448e-01 7.549388e-03 -1.267210e-01
1.586663e-02 5.270968e-01 7.548124e-03 -1.284375e-01
2.644438e-02 6.027778e-01 7.557986e-03 -1.300824e-01
3.702214e-02 6.783281e-01 7.715096e-03 -1.315998e-01
4.759989e-02 7.533696e-01 7.874160e-03 -1.330394e-01
5.817764e-02 8.274360e-01 8.020724e-03 -1.343430e-01
6.875539e-02 9.010643e-01 8.176348e-03 -1.354965e-01
7.933315e-02 9.740976e-01 8.376267e-03 -1.363792e-01
8.991090e-02 1.046489e+00 8.604975e-03 -1.370989e-01
1.004887e-01 1.117097e+00 8.907983e-03 -1.374012e-01
1.110664e-01 1.184290e+00 9.275897e-03 -1.371794e-01
1.216442e-01 1.248969e+00 9.708847e-03 -1.366042e-01
1.322219e-01 1.298819e+00 1.066328e-02 -1.338355e-01
1.427997e-01 1.339587e+00 1.191266e-02 -1.301682e-01
1.533774e-01 1.360053e+00 1.397795e-02 -1.247200e-01
1.639552e-01 1.343014e+00 2.309144e-02 -1.227448e-01
1.745329e-01 1.307531e+00 3.600928e-02 -1.227429e-01
1.851107e-01 1.217401e+00 4.734892e-02 -1.217777e-01
1.956884e-01 1.148766e+00 5.642900e-02 -1.195093e-01
2.062662e-01 1.120087e+00 6.136139e-02 -1.143510e-01
2.168439e-01 1.106417e+00 6.869907e-02 -1.095728e-01
2.274217e-01 1.100011e+00 7.713212e-02 -1.058277e-01
2.379994e-01 1.108999e+00 8.722041e-02 -1.074751e-01
2.485772e-01 1.120089e+00 9.756506e-02 -1.094250e-01
2.591549e-01 1.130756e+00 1.082942e-01 -1.119060e-01
2.697327e-01 1.135169e+00 1.174643e-01 -1.131159e-01
2.803105e-01 1.136768e+00 1.259782e-01 -1.136566e-01
2.908882e-01 1.132111e+00 1.332625e-01 -1.128409e-01
3.014660e-01 1.130587e+00 1.421294e-01 -1.131958e-01
3.120437e-01 1.132671e+00 1.529304e-01 -1.149872e-01
3.226215e-01 1.135345e+00 1.653268e-01 -1.185078e-01
3.331992e-01 1.138081e+00 1.779479e-01 -1.222783e-01
3.437770e-01 1.139969e+00 1.895818e-01 -1.250147e-01
3.543547e-01 1.141363e+00 2.028099e-01 -1.287591e-01
3.649325e-01 1.142789e+00 2.176324e-01 -1.335922e-01
3.755102e-01 1.145201e+00 2.324549e-01 -1.384499e-01
3.860880e-01 1.145346e+00 2.465931e-01 -1.437140e-01
3.966657e-01 1.136692e+00 2.579952e-01 -1.506035e-01
4.072435e-01 1.128038e+00 2.693973e-01 -1.575140e-01
4.178212e-01 1.119383e+00 2.807994e-01 -1.645045e-01
4.283990e-01 1.111330e+00 2.923510e-01 -1.705381e-01
4.389768e-01 1.103344e+00 3.039193e-01 -1.764612e-01
4.495545e-01 1.095358e+00 3.154876e-01 -1.823793e-01
4.601323e-01 1.088241e+00 3.274432e-01 -1.878127e-01
4.707100e-01 1.081702e+00 3.396571e-01 -1.929227e-01
4.812878e-01 1.075164e+00 3.518710e-01 -1.980296e-01
4.918655e-01 1.068913e+00 3.642602e-01 -2.029653e-01
5.024433e-01 1.063335e+00 3.770587e-01 -2.075066e-01
5.130210e-01 1.057757e+00 3.898571e-01 -2.120458e-01
5.235988e-01 1.052179e+00 4.026556e-01 -2.165830e-01
5.759587e-01 1.027959e+00 4.693447e-01 -2.365554e-01
6.283185e-01 1.004968e+00 5.388170e-01 -2.548254e-01
6.806784e-01 9.811469e-01 6.109107e-01 -2.717028e-01
7.330383e-01 9.541279e-01 6.846043e-01 -2.876237e-01
7.853982e-01 9.259255e-01 7.586922e-01 -3.032729e-01
8.377580e-01 8.909220e-01 8.326331e-01 -3.181030e-01
8.901179e-01 8.518874e-01 9.049885e-01 -3.326079e-01
9.424778e-01 8.047903e-01 9.741728e-01 -3.464679e-01
9.948377e-01 7.576932e-01 1.043357e+00 -3.603250e-01
1.047198e+00 7.105960e-01 1.112540e+00 -3.741795e-01
1.099557e+00 6.480495e-01 1.168371e+00 -3.866112e-01
1.151917e+00 5.855028e-01 1.224201e+00 -3.990414e-01
1.204277e+00 5.229561e-01 1.280032e+00 -4.114701e-01
1.256637e+00 4.531104e-01 1.322342e+00 -4.226121e-01
1.308997e+00 3.796153e-01 1.357893e+00 -4.331106e-01
1.361357e+00 3.061188e-01 1.393444e+00 -4.436080e-01
1.413717e+00 2.314091e-01 1.420737e+00 -4.532326e-01
1.466077e+00 1.542731e-01 1.431511e+00 -4.611125e-01
1.518436e+00 7.713645e-02 1.442286e+00 -4.689917e-01
1.570796e+00 -3.370039e-07 1.453060e+00 -4.768704e-01
1.623156e+00 -5.399593e-02 1.442286e+00 -4.816927e-01
1.675516e+00 -1.079915e-01 1.431511e+00 -4.864908e-01
1.727876e+00 -1.619871e-01 1.420736e+00 -4.912740e-01
1.780236e+00 -2.142837e-01 1.393444e+00 -4.927593e-01
1.832596e+00 -2.657307e-01 1.357893e+00 -4.925882e-01
1.884956e+00 -3.171777e-01 1.322342e+00 -4.925071e-01
1.937315e+00 -3.660697e-01 1.280031e+00 -4.912131e-01
1.989675e+00 -4.098519e-01 1.224201e+00 -4.873751e-01
2.042035e+00 -4.536344e-01 1.168371e+00 -4.835367e-01
2.094395e+00 -4.974171e-01 1.112540e+00 -4.796981e-01
2.146755e+00 -5.303848e-01 1.043357e+00 -4.740452e-01
2.199115e+00 -5.633526e-01 9.741733e-01 -4.683920e-01
2.251475e+00 -5.963207e-01 9.049890e-01 -4.627349e-01
2.303835e+00 -6.220582e-01 8.325845e-01 -4.579409e-01
2.356194e+00 -6.441806e-01 7.585700e-01 -4.535796e-01
2.408554e+00 -6.663026e-01 6.845557e-01 -4.492184e-01
2.460914e+00 -6.865980e-01 6.119571e-01 -4.471778e-01
2.513274e+00 -7.032402e-01 5.421899e-01 -4.497785e-01
2.565634e+00 -7.198818e-01 4.724229e-01 -4.523792e-01
2.617994e+00 -7.365232e-01 4.026560e-01 -4.549798e-01
2.670354e+00 -7.239960e-01 3.506064e-01 -4.685704e-01
2.722714e+00 -7.100144e-01 2.985568e-01 -4.821060e-01
2.775074e+00 -6.958230e-01 2.465072e-01 -4.963191e-01
2.827433e+00 -6.222667e-01 2.062304e-01 -5.008738e-01
2.879793e+00 -5.187150e-01 1.718399e-01 -5.005462e-01
2.932153e+00 -4.151640e-01 1.374493e-01 -5.002185e-01
2.984513e+00 -3.115168e-01 1.030699e-01 -4.500005e-01
3.036873e+00 -2.076775e-01 6.871315e-02 -2.999997e-01
3.089233e+00 -1.033653e-01 5.678698e-02 -1.487232e-01
3.141593e+00 0.000000e+00 5.608399e-02 1.471672e-03
