# Angle of attack [rad] 	 Lift coefficient [-] 	 Drag coefficient [-] 	 Moment coefficient [-]
-3.141593e+00 0.000000e+00 4.749453e-02 0.000000e+00
-3.089233e+00 1.090262e-01 4.749453e-02 1.194527e-01
-3.036873e+00 2.190501e-01 5.699338e-02 2.399998e-01
-2.984513e+00 3.285757e-01 8.549025e-02 3.600004e-01
-2.932153e+00 4.381069e-01 1.139865e-01 3.177781e-01
-2.879793e+00 5.476440e-01 1.424825e-01 1.944463e-01
-2.827433e+00 6.571854e-01 1.709793e-01 7.111358e-02
-2.775074e+00 7.289866e-01 2.083259e-01 -1.074680e-02
-2.722714e+00 7.236043e-01 2.633715e-01 -1.081741e-02
-2.670354e+00 7.177673e-01 3.184172e-01 -1.141487e-02
-2.617994e+00 7.124453e-01 3.734629e-01 -1.264574e-02
-2.565634e+00 6.986308e-01 4.442407e-01 2.755368e-03
-2.513274e+00 6.848161e-01 5.150187e-01 1.815679e-02
-2.460914e+00 6.710009e-01 5.857973e-01 3.360661e-02
-2.408554e+00 6.528474e-01 6.595637e-01 4.921272e-02
-2.356194e+00 6.325247e-01 7.348240e-01 6.488708e-02
-2.303835e+00 6.122013e-01 8.100852e-01 8.055970e-02
-2.251475e+00 5.880656e-01 8.838019e-01 9.635506e-02
-2.199115e+00 5.563050e-01 9.544295e-01 1.123984e-01
-2.146755e+00 5.245443e-01 1.025057e+00 1.284409e-01
-2.094395e+00 4.927836e-01 1.095683e+00 1.444827e-01
-2.042035e+00 4.497916e-01 1.153112e+00 1.596986e-01
-1.989675e+00 4.067996e-01 1.210540e+00 1.749142e-01
-1.937315e+00 3.638076e-01 1.267968e+00 1.901295e-01
-1.884956e+00 3.154803e-01 1.311947e+00 2.037014e-01
-1.832596e+00 2.644854e-01 1.349200e+00 2.164523e-01
-1.780236e+00 2.134904e-01 1.386453e+00 2.292039e-01
-1.727876e+00 1.615444e-01 1.415466e+00 2.406010e-01
-1.675516e+00 1.076964e-01 1.427997e+00 2.492884e-01
-1.623156e+00 5.384836e-02 1.440529e+00 2.579779e-01
-1.570796e+00 3.360829e-07 1.453060e+00 2.666700e-01
-1.518436e+00 -5.384831e-02 1.440529e+00 2.706538e-01
-1.466077e+00 -1.076965e-01 1.427997e+00 2.746321e-01
-1.413717e+00 -1.615440e-01 1.415466e+00 2.786052e-01
-1.361357e+00 -2.134902e-01 1.386453e+00 2.792870e-01
-1.308997e+00 -2.644857e-01 1.349200e+00 2.783216e-01
-1.256637e+00 -3.154801e-01 1.311947e+00 2.773526e-01
-1.204277e+00 -3.638072e-01 1.267969e+00 2.751146e-01
-1.151917e+00 -4.067998e-01 1.210540e+00 2.703426e-01
-1.099557e+00 -4.497919e-01 1.153112e+00 2.655692e-01
-1.047198e+00 -4.927838e-01 1.095683e+00 2.607953e-01
-9.948377e-01 -5.245445e-01 1.025056e+00 2.541852e-01
-9.424778e-01 -5.563052e-01 9.544291e-01 2.475776e-01
-8.901179e-01 -5.880658e-01 8.838014e-01 2.409738e-01
-8.377580e-01 -6.139104e-01 8.100980e-01 2.346116e-01
-7.853982e-01 -6.367971e-01 7.348568e-01 2.283777e-01
-7.330383e-01 -6.545564e-01 6.595765e-01 2.236803e-01
-6.806784e-01 -6.713802e-01 5.847176e-01 2.195369e-01
-6.283185e-01 -6.856042e-01 5.115462e-01 2.173051e-01
-5.759587e-01 -6.988157e-01 4.410784e-01 2.180543e-01
-5.235988e-01 -7.124454e-01 3.734624e-01 2.221247e-01
-5.130210e-01 -7.155693e-01 3.604912e-01 2.238429e-01
-5.024433e-01 -7.186931e-01 3.475200e-01 2.255612e-01
-4.918655e-01 -7.218170e-01 3.345488e-01 2.272795e-01
-4.812878e-01 -7.253375e-01 3.219943e-01 2.296350e-01
-4.707100e-01 -7.290282e-01 3.096185e-01 2.322637e-01
-4.601323e-01 -7.327188e-01 2.972427e-01 2.348924e-01
-4.495545e-01 -7.367626e-01 2.851296e-01 2.379972e-01
-4.389768e-01 -7.413362e-01 2.734107e-01 2.418163e-01
-4.283990e-01 -7.459098e-01 2.616918e-01 2.456354e-01
-4.178212e-01 -7.506271e-01 2.500437e-01 2.495150e-01
-4.072435e-01 -7.566385e-01 2.390325e-01 2.539403e-01
-3.966657e-01 -7.626498e-01 2.280214e-01 2.578538e-01
-3.860880e-01 -7.686611e-01 2.170102e-01 2.620686e-01
-3.755102e-01 -8.072330e-01 2.107194e-01 2.446669e-01
-3.649325e-01 -8.500639e-01 2.056090e-01 2.238252e-01
-3.543547e-01 -8.948189e-01 2.004986e-01 2.035315e-01
-3.437770e-01 -9.393016e-01 1.953882e-01 1.834589e-01
-3.331992e-01 -9.836596e-01 1.902779e-01 1.634740e-01
-3.226215e-01 -1.028356e+00 1.848627e-01 1.435419e-01
-3.120437e-01 -1.073120e+00 1.796236e-01 1.230062e-01
-3.014660e-01 -1.117896e+00 1.753053e-01 1.021740e-01
-2.908882e-01 -1.162916e+00 1.704796e-01 8.134692e-02
-2.803105e-01 -1.208107e+00 1.654355e-01 6.052610e-02
-2.697327e-01 -1.227802e+00 1.584140e-01 4.429992e-02
-2.591549e-01 -1.231481e+00 1.501760e-01 3.060013e-02
-2.485772e-01 -1.195577e+00 1.389919e-01 2.191178e-02
-2.379994e-01 -1.153203e+00 1.273918e-01 1.070829e-02
-2.274217e-01 -1.106242e+00 1.155103e-01 -8.835662e-04
-2.168439e-01 -1.054043e+00 1.037637e-01 -1.085871e-02
-2.062662e-01 -1.001361e+00 9.261674e-02 -1.965432e-02
-1.956884e-01 -9.485858e-01 8.311405e-02 -2.584022e-02
-1.851107e-01 -8.936679e-01 7.462271e-02 -3.163908e-02
-1.745329e-01 -8.380652e-01 6.665118e-02 -3.725757e-02
-1.639552e-01 -7.954108e-01 5.512362e-02 -4.388657e-02
-1.533774e-01 -7.591146e-01 4.226127e-02 -5.059754e-02
-1.427997e-01 -7.399083e-01 2.653475e-02 -5.758701e-02
-1.322219e-01 -6.955152e-01 1.937440e-02 -6.186966e-02
-1.216442e-01 -6.389704e-01 1.569037e-02 -6.504450e-02
-1.110664e-01 -5.530510e-01 1.443305e-02 -7.049163e-02
-1.004887e-01 -4.678555e-01 1.327285e-02 -7.564454e-02
-8.991090e-02 -3.837619e-01 1.227476e-02 -8.034340e-02
-7.933315e-02 -3.008534e-01 1.159213e-02 -8.449645e-02
-6.875539e-02 -2.183168e-01 1.104442e-02 -8.843033e-02
-5.817764e-02 -1.358022e-01 1.067564e-02 -9.191892e-02
-4.759989e-02 -5.524019e-02 1.044785e-02 -9.514621e-02
-3.702214e-02 2.363969e-02 1.036043e-02 -9.818886e-02
-2.644438e-02 1.014846e-01 1.024520e-02 -1.010042e-01
-1.586663e-02 1.794666e-01 1.016192e-02 -1.037503e-01
-5.288877e-03 2.590876e-01 1.024266e-02 -1.063603e-01
5.288877e-03 3.378376e-01 1.033031e-02 -1.088435e-01
1.586663e-02 4.157900e-01 1.042121e-02 -1.111778e-01
2.644438e-02 4.931479e-01 1.042361e-02 -1.132985e-01
3.702214e-02 5.698595e-01 1.046451e-02 -1.153234e-01
4.759989e-02 6.443076e-01 1.064953e-02 -1.171707e-01
5.817764e-02 7.186009e-01 1.081268e-02 -1.188360e-01
6.875539e-02 7.929502e-01 1.090431e-02 -1.203293e-01
7.933315e-02 8.667506e-01 1.102873e-02 -1.216221e-01
8.991090e-02 9.399369e-01 1.118597e-02 -1.228001e-01
1.004887e-01 1.011434e+00 1.141115e-02 -1.236967e-01
1.110664e-01 1.081828e+00 1.167204e-02 -1.243001e-01
1.216442e-01 1.151548e+00 1.195071e-02 -1.247064e-01
1.322219e-01 1.218300e+00 1.231110e-02 -1.243184e-01
1.427997e-01 1.282843e+00 1.284536e-02 -1.235735e-01
1.533774e-01 1.341530e+00 1.370246e-02 -1.220087e-01
1.639552e-01 1.391752e+00 1.505019e-02 -1.207646e-01
1.745329e-01 1.440721e+00 1.676195e-02 -1.197008e-01
1.851107e-01 1.474450e+00 1.865887e-02 -1.173836e-01
1.956884e-01 1.502111e+00 2.064426e-02 -1.139868e-01
2.062662e-01 1.518497e+00 2.279490e-02 -1.088012e-01
2.168439e-01 1.381101e+00 3.919328e-02 -1.106094e-01
2.274217e-01 1.173946e+00 6.111166e-02 -1.147530e-01
2.379994e-01 1.127195e+00 7.051261e-02 -1.132859e-01
2.485772e-01 1.088882e+00 7.967314e-02 -1.119927e-01
2.591549e-01 1.060092e+00 8.837364e-02 -1.110291e-01
2.697327e-01 1.040881e+00 9.688453e-02 -1.100829e-01
2.803105e-01 1.025662e+00 1.053533e-01 -1.094480e-01
2.908882e-01 1.017471e+00 1.140117e-01 -1.095337e-01
3.014660e-01 1.013938e+00 1.231117e-01 -1.101950e-01
3.120437e-01 1.016210e+00 1.327516e-01 -1.115567e-01
3.226215e-01 1.030627e+00 1.443577e-01 -1.147374e-01
3.331992e-01 1.047715e+00 1.565046e-01 -1.185239e-01
3.437770e-01 1.062919e+00 1.689307e-01 -1.231676e-01
3.543547e-01 1.075028e+00 1.811350e-01 -1.283247e-01
3.649325e-01 1.083821e+00 1.931175e-01 -1.338157e-01
3.755102e-01 1.092149e+00 2.051000e-01 -1.392466e-01
3.860880e-01 1.097154e+00 2.168956e-01 -1.448281e-01
3.966657e-01 1.088868e+00 2.279437e-01 -1.509782e-01
4.072435e-01 1.080582e+00 2.389919e-01 -1.570844e-01
4.178212e-01 1.072296e+00 2.500400e-01 -1.629560e-01
4.283990e-01 1.065586e+00 2.616918e-01 -1.680409e-01
4.389768e-01 1.059052e+00 2.734107e-01 -1.730407e-01
4.495545e-01 1.052517e+00 2.851296e-01 -1.780429e-01
4.601323e-01 1.046739e+00 2.972427e-01 -1.826872e-01
4.707100e-01 1.041466e+00 3.096185e-01 -1.870929e-01
4.812878e-01 1.036193e+00 3.219943e-01 -1.915001e-01
4.918655e-01 1.031164e+00 3.345488e-01 -1.957833e-01
5.024433e-01 1.026704e+00 3.475200e-01 -1.997745e-01
5.130210e-01 1.022244e+00 3.604912e-01 -2.037667e-01
5.235988e-01 1.017783e+00 3.734624e-01 -2.077600e-01
5.759587e-01 9.983067e-01 4.410784e-01 -2.257104e-01
6.283185e-01 9.794352e-01 5.115462e-01 -2.424397e-01
6.806784e-01 9.591150e-01 5.847176e-01 -2.587258e-01
7.330383e-01 9.350811e-01 6.595765e-01 -2.741400e-01
7.853982e-01 9.097106e-01 7.348568e-01 -2.892885e-01
8.377580e-01 8.770147e-01 8.100980e-01 -3.037527e-01
8.901179e-01 8.400933e-01 8.838014e-01 -3.179221e-01
9.424778e-01 7.947208e-01 9.544291e-01 -3.315255e-01
9.948377e-01 7.493486e-01 1.025056e+00 -3.451180e-01
1.047198e+00 7.039766e-01 1.095683e+00 -3.587020e-01
1.099557e+00 6.425594e-01 1.153112e+00 -3.709521e-01
1.151917e+00 5.811420e-01 1.210540e+00 -3.831949e-01
1.204277e+00 5.197247e-01 1.267969e+00 -3.954319e-01
1.256637e+00 4.506860e-01 1.311947e+00 -4.064126e-01
1.308997e+00 3.778368e-01 1.349200e+00 -4.167624e-01
1.361357e+00 3.049862e-01 1.386453e+00 -4.271075e-01
1.413717e+00 2.307774e-01 1.415466e+00 -4.365897e-01
1.466077e+00 1.538522e-01 1.427997e+00 -4.443502e-01
1.518436e+00 7.692611e-02 1.440529e+00 -4.521064e-01
1.570796e+00 -3.360829e-07 1.453060e+00 -4.598590e-01
1.623156e+00 -5.384836e-02 1.440529e+00 -4.638486e-01
1.675516e+00 -1.076964e-01 1.427997e+00 -4.678443e-01
1.727876e+00 -1.615444e-01 1.415466e+00 -4.718465e-01
1.780236e+00 -2.134904e-01 1.386453e+00 -4.725679e-01
1.832596e+00 -2.644854e-01 1.349200e+00 -4.716524e-01
1.884956e+00 -3.154803e-01 1.311947e+00 -4.706949e-01
1.937315e+00 -3.638076e-01 1.267968e+00 -4.684433e-01
1.989675e+00 -4.067996e-01 1.210540e+00 -4.636586e-01
2.042035e+00 -4.497916e-01 1.153112e+00 -4.588726e-01
2.094395e+00 -4.927836e-01 1.095683e+00 -4.540857e-01
2.146755e+00 -5.245443e-01 1.025057e+00 -4.474595e-01
2.199115e+00 -5.563050e-01 9.544295e-01 -4.408324e-01
2.251475e+00 -5.880656e-01 8.838019e-01 -4.342041e-01
2.303835e+00 -6.122013e-01 8.100852e-01 -4.283114e-01
2.356194e+00 -6.325247e-01 7.348240e-01 -4.227860e-01
2.408554e+00 -6.528474e-01 6.595637e-01 -4.172598e-01
2.460914e+00 -6.710009e-01 5.857973e-01 -4.138168e-01
2.513274e+00 -6.848161e-01 5.150187e-01 -4.145405e-01
2.565634e+00 -6.986308e-01 4.442407e-01 -4.152626e-01
2.617994e+00 -7.124453e-01 3.734629e-01 -4.159834e-01
2.670354e+00 -7.070095e-01 3.201459e-01 -4.313330e-01
2.722714e+00 -7.023192e-01 2.668292e-01 -4.466742e-01
2.775074e+00 -6.970676e-01 2.135128e-01 -4.617002e-01
2.827433e+00 -6.252525e-01 1.761667e-01 -4.733557e-01
2.879793e+00 -5.210435e-01 1.468057e-01 -4.833477e-01
2.932153e+00 -4.168351e-01 1.174446e-01 -4.933390e-01
2.984513e+00 -3.126264e-01 8.808345e-02 -4.500005e-01
3.036873e+00 -2.084174e-01 5.872248e-02 -2.999997e-01
3.089233e+00 -1.037343e-01 4.835523e-02 -1.493159e-01
3.141593e+00 0.000000e+00 4.749453e-02 0.000000e+00
