# Angle of attack [rad] 	 Lift coefficient [-] 	 Drag coefficient [-] 	 Moment coefficient [-]
-3.141593e+00 0.000000e+00 1.528907e-01 0.000000e+00
-3.089233e+00 1.317045e-01 1.637637e-01 1.194527e-01
-3.036873e+00 2.646155e-01 1.747447e-01 2.399998e-01
-2.984513e+00 3.969241e-01 1.856835e-01 3.600004e-01
-2.932153e+00 4.836927e-01 2.104101e-01 3.833595e-01
-2.879793e+00 5.476784e-01 2.420399e-01 3.583989e-01
-2.827433e+00 6.116619e-01 2.736849e-01 3.334381e-01
-2.775074e+00 6.491479e-01 3.108895e-01 3.135272e-01
-2.722714e+00 6.336280e-01 3.592033e-01 3.037163e-01
-2.670354e+00 6.181028e-01 4.075459e-01 2.939052e-01
-2.617994e+00 6.025714e-01 4.559256e-01 2.840939e-01
-2.565634e+00 5.938517e-01 5.147589e-01 2.870634e-01
-2.513274e+00 5.851297e-01 5.732638e-01 2.900328e-01
-2.460914e+00 5.764051e-01 6.317692e-01 2.930022e-01
-2.408554e+00 5.629584e-01 6.922749e-01 2.982719e-01
-2.356194e+00 5.471508e-01 7.537807e-01 3.046918e-01
-2.303835e+00 5.313420e-01 8.152873e-01 3.111117e-01
-2.251475e+00 5.118987e-01 8.751341e-01 3.175018e-01
-2.199115e+00 4.851880e-01 9.316617e-01 3.238322e-01
-2.146755e+00 4.584772e-01 9.881887e-01 3.301626e-01
-2.094395e+00 4.317660e-01 1.044716e+00 3.364929e-01
-2.042035e+00 3.945682e-01 1.088884e+00 3.406036e-01
-1.989675e+00 3.573703e-01 1.133052e+00 3.447143e-01
-1.937315e+00 3.201726e-01 1.177220e+00 3.488250e-01
-1.884956e+00 2.779621e-01 1.209128e+00 3.505158e-01
-1.832596e+00 2.332454e-01 1.234907e+00 3.509967e-01
-1.780236e+00 1.885291e-01 1.260685e+00 3.514776e-01
-1.727876e+00 1.428463e-01 1.279084e+00 3.504985e-01
-1.675516e+00 9.523064e-02 1.282722e+00 3.465992e-01
-1.623156e+00 4.761538e-02 1.286361e+00 3.427000e-01
-1.570796e+00 2.971811e-07 1.290000e+00 3.388775e-01
-1.518436e+00 -4.761533e-02 1.286361e+00 3.342882e-01
-1.466077e+00 -9.523078e-02 1.282722e+00 3.297396e-01
-1.413717e+00 -1.428459e-01 1.279084e+00 3.252080e-01
-1.361357e+00 -1.885288e-01 1.260685e+00 3.179554e-01
-1.308997e+00 -2.332457e-01 1.234907e+00 3.093440e-01
-1.256637e+00 -2.779619e-01 1.209128e+00 3.007327e-01
-1.204277e+00 -3.201722e-01 1.177220e+00 2.911216e-01
-1.151917e+00 -3.573704e-01 1.133052e+00 2.795109e-01
-1.099557e+00 -3.945684e-01 1.088884e+00 2.679001e-01
-1.047198e+00 -4.317662e-01 1.044715e+00 2.562894e-01
-9.948377e-01 -4.584774e-01 9.881884e-01 2.431196e-01
-9.424778e-01 -4.851882e-01 9.316613e-01 2.299498e-01
-8.901179e-01 -5.118989e-01 8.751338e-01 2.167798e-01
-8.377580e-01 -5.313420e-01 8.152873e-01 2.033706e-01
-7.853982e-01 -5.471506e-01 7.537815e-01 1.898417e-01
-7.330383e-01 -5.629584e-01 6.922750e-01 1.763127e-01
-6.806784e-01 -5.764051e-01 6.317692e-01 1.628840e-01
-6.283185e-01 -5.851297e-01 5.732637e-01 1.496558e-01
-5.759587e-01 -5.938517e-01 5.147593e-01 1.364278e-01
-5.235988e-01 -6.025715e-01 4.559253e-01 1.231996e-01
-5.130210e-01 -6.057097e-01 4.461483e-01 1.201832e-01
-5.024433e-01 -6.088477e-01 4.363732e-01 1.171763e-01
-4.918655e-01 -6.119854e-01 4.265998e-01 1.141688e-01
-4.812878e-01 -6.151229e-01 4.168279e-01 1.111605e-01
-4.707100e-01 -6.182601e-01 4.070575e-01 1.081515e-01
-4.601323e-01 -6.213971e-01 3.972885e-01 1.051418e-01
-4.495545e-01 -6.245338e-01 3.875211e-01 1.021314e-01
-4.389768e-01 -6.276702e-01 3.777553e-01 9.912038e-02
-4.283990e-01 -6.308064e-01 3.679906e-01 9.610857e-02
-4.178212e-01 -6.339424e-01 3.582272e-01 9.309599e-02
-4.072435e-01 -6.370780e-01 3.484650e-01 9.008262e-02
-3.966657e-01 -6.402135e-01 3.387038e-01 8.706845e-02
-3.860880e-01 -6.433487e-01 3.289437e-01 8.405347e-02
-3.755102e-01 -6.464837e-01 3.191843e-01 8.103757e-02
-3.649325e-01 -6.496184e-01 3.094258e-01 7.802080e-02
-3.543547e-01 -6.527530e-01 2.996683e-01 7.500315e-02
-3.437770e-01 -6.462816e-01 2.909494e-01 7.049686e-02
-3.331992e-01 -6.302042e-01 2.832697e-01 6.450230e-02
-3.226215e-01 -6.141266e-01 2.755920e-01 5.850743e-02
-3.120437e-01 -5.980479e-01 2.679158e-01 5.251181e-02
-3.014660e-01 -5.819673e-01 2.602409e-01 4.651501e-02
-2.908882e-01 -5.658856e-01 2.525676e-01 4.051707e-02
-2.803105e-01 -5.498027e-01 2.448961e-01 3.451767e-02
-2.697327e-01 -5.337194e-01 2.372266e-01 2.851669e-02
-2.591549e-01 -5.176346e-01 2.295588e-01 2.251310e-02
-2.485772e-01 -5.015478e-01 2.218924e-01 1.650573e-02
-2.379994e-01 -4.854637e-01 2.142317e-01 1.049349e-02
-2.274217e-01 -4.693701e-01 2.065655e-01 4.473145e-03
-2.168439e-01 -4.532832e-01 1.989089e-01 -1.546132e-03
-2.062662e-01 -4.371874e-01 1.912474e-01 -7.534242e-03
-1.956884e-01 -4.210938e-01 1.835912e-01 -1.352187e-02
-1.851107e-01 -4.049986e-01 1.759379e-01 -1.950993e-02
-1.745329e-01 -3.888966e-01 1.682814e-01 -2.549762e-02
-1.639552e-01 -3.569806e-01 1.605706e-01 -2.457870e-02
-1.533774e-01 -3.250528e-01 1.528598e-01 -2.366547e-02
-1.427997e-01 -2.931238e-01 1.451529e-01 -2.274436e-02
-1.322219e-01 -2.611895e-01 1.374583e-01 -2.182323e-02
-1.216442e-01 -2.292533e-01 1.297703e-01 -2.091219e-02
-1.110664e-01 -1.972991e-01 1.220787e-01 -1.999101e-02
-1.004887e-01 -1.653371e-01 1.144016e-01 -1.906883e-02
-8.991090e-02 -1.333634e-01 1.067311e-01 -1.815531e-02
-7.933315e-02 -1.013659e-01 9.905776e-02 -1.723779e-02
-6.875539e-02 -6.935678e-02 9.140064e-02 -1.631729e-02
-5.817764e-02 -3.318076e-02 8.465708e-02 -1.577315e-02
-4.759989e-02 2.397274e-02 8.252739e-02 -1.713816e-02
-3.702214e-02 9.324863e-02 8.311418e-02 -1.962726e-02
-2.644438e-02 1.625286e-01 8.370082e-02 -2.210769e-02
-1.586663e-02 2.317972e-01 8.428592e-02 -2.459405e-02
-5.288877e-03 3.010682e-01 8.486564e-02 -2.708683e-02
5.288877e-03 3.703385e-01 8.545233e-02 -2.957124e-02
1.586663e-02 4.396103e-01 8.603910e-02 -3.205591e-02
2.644438e-02 5.091926e-01 8.661388e-02 -3.454493e-02
3.702214e-02 5.864061e-01 8.665820e-02 -3.723795e-02
4.759989e-02 6.672098e-01 8.644253e-02 -4.003787e-02
5.817764e-02 7.480063e-01 8.622686e-02 -4.283765e-02
6.875539e-02 8.288146e-01 8.601233e-02 -4.563767e-02
7.933315e-02 9.096077e-01 8.579767e-02 -4.842743e-02
8.991090e-02 9.904158e-01 8.559131e-02 -5.122746e-02
1.004887e-01 1.068404e+00 8.538162e-02 -5.421255e-02
1.110664e-01 1.141604e+00 8.518499e-02 -5.750664e-02
1.216442e-01 1.214137e+00 8.499440e-02 -6.084876e-02
1.322219e-01 1.286646e+00 8.480253e-02 -6.419369e-02
1.427997e-01 1.359074e+00 8.460741e-02 -6.753959e-02
1.533774e-01 1.424989e+00 8.489396e-02 -7.113855e-02
1.639552e-01 1.477900e+00 8.615621e-02 -7.525375e-02
1.745329e-01 1.527620e+00 8.765278e-02 -7.949589e-02
1.851107e-01 1.210371e+00 1.083686e-01 -7.477804e-02
1.956884e-01 1.067453e+00 1.306503e-01 -4.137443e-02
2.062662e-01 1.040477e+00 1.486022e-01 -3.873227e-02
2.168439e-01 1.020501e+00 1.655107e-01 -4.074016e-02
2.274217e-01 1.009569e+00 1.816091e-01 -4.278149e-02
2.379994e-01 1.007438e+00 1.964455e-01 -4.482030e-02
2.485772e-01 1.007575e+00 2.098421e-01 -4.687588e-02
2.591549e-01 1.008997e+00 2.226218e-01 -4.898269e-02
2.697327e-01 1.011490e+00 2.341792e-01 -5.105425e-02
2.803105e-01 1.012889e+00 2.450103e-01 -5.350620e-02
2.908882e-01 1.001953e+00 2.529418e-01 -5.948800e-02
3.014660e-01 9.903724e-01 2.607126e-01 -6.566069e-02
3.120437e-01 9.780063e-01 2.682869e-01 -7.206663e-02
3.226215e-01 9.656445e-01 2.758564e-01 -7.847491e-02
3.331992e-01 9.532843e-01 2.834261e-01 -8.488132e-02
3.437770e-01 9.409249e-01 2.910018e-01 -9.128082e-02
3.543547e-01 9.325085e-01 2.996683e-01 -9.631975e-02
3.649325e-01 9.280356e-01 3.094258e-01 -9.999875e-02
3.755102e-01 9.235625e-01 3.191843e-01 -1.036768e-01
3.860880e-01 9.190890e-01 3.289437e-01 -1.073540e-01
3.966657e-01 9.146152e-01 3.387038e-01 -1.110302e-01
4.072435e-01 9.101412e-01 3.484650e-01 -1.147055e-01
4.178212e-01 9.056668e-01 3.582272e-01 -1.183800e-01
4.283990e-01 9.011919e-01 3.679906e-01 -1.220537e-01
4.389768e-01 8.967168e-01 3.777553e-01 -1.257265e-01
4.495545e-01 8.922413e-01 3.875211e-01 -1.293986e-01
4.601323e-01 8.877654e-01 3.972885e-01 -1.330699e-01
4.707100e-01 8.832890e-01 4.070575e-01 -1.367406e-01
4.812878e-01 8.788123e-01 4.168279e-01 -1.404104e-01
4.918655e-01 8.743353e-01 4.265998e-01 -1.440796e-01
5.024433e-01 8.698580e-01 4.363732e-01 -1.477479e-01
5.130210e-01 8.653803e-01 4.461483e-01 -1.514155e-01
5.235988e-01 8.609022e-01 4.559253e-01 -1.550825e-01
5.759587e-01 8.483980e-01 5.147593e-01 -1.686634e-01
6.283185e-01 8.358907e-01 5.732637e-01 -1.822980e-01
6.806784e-01 8.233797e-01 6.317692e-01 -1.959459e-01
7.330383e-01 8.041550e-01 6.922750e-01 -2.085543e-01
7.853982e-01 7.815735e-01 7.537815e-01 -2.206431e-01
8.377580e-01 7.589909e-01 8.152873e-01 -2.327317e-01
8.901179e-01 7.312158e-01 8.751338e-01 -2.443208e-01
9.424778e-01 6.930577e-01 9.316613e-01 -2.549105e-01
9.948377e-01 6.548993e-01 9.881884e-01 -2.655002e-01
1.047198e+00 6.167404e-01 1.044715e+00 -2.760899e-01
1.099557e+00 5.636296e-01 1.088884e+00 -2.848205e-01
1.151917e+00 5.105183e-01 1.133052e+00 -2.935512e-01
1.204277e+00 4.574068e-01 1.177220e+00 -3.022818e-01
1.256637e+00 3.971276e-01 1.209128e+00 -3.094728e-01
1.308997e+00 3.332647e-01 1.234907e+00 -3.158941e-01
1.361357e+00 2.694010e-01 1.260685e+00 -3.223155e-01
1.413717e+00 2.041427e-01 1.279084e+00 -3.278169e-01
1.466077e+00 1.360954e-01 1.282722e+00 -3.314787e-01
1.518436e+00 6.804761e-02 1.286361e+00 -3.351578e-01
1.570796e+00 -2.971811e-07 1.290000e+00 -3.388758e-01
1.623156e+00 -4.761538e-02 1.286361e+00 -3.426999e-01
1.675516e+00 -9.523064e-02 1.282722e+00 -3.465974e-01
1.727876e+00 -1.428463e-01 1.279084e+00 -3.504950e-01
1.780236e+00 -1.885291e-01 1.260685e+00 -3.514726e-01
1.832596e+00 -2.332454e-01 1.234907e+00 -3.509902e-01
1.884956e+00 -2.779621e-01 1.209128e+00 -3.505078e-01
1.937315e+00 -3.201726e-01 1.177220e+00 -3.488157e-01
1.989675e+00 -3.573703e-01 1.133052e+00 -3.447038e-01
2.042035e+00 -3.945682e-01 1.088884e+00 -3.405920e-01
2.094395e+00 -4.317660e-01 1.044716e+00 -3.364801e-01
2.146755e+00 -4.584772e-01 9.881887e-01 -3.301490e-01
2.199115e+00 -4.851880e-01 9.316617e-01 -3.238180e-01
2.251475e+00 -5.118987e-01 8.751341e-01 -3.174869e-01
2.303835e+00 -5.313420e-01 8.152873e-01 -3.110964e-01
2.356194e+00 -5.471508e-01 7.537807e-01 -3.046763e-01
2.408554e+00 -5.629584e-01 6.922749e-01 -2.982563e-01
2.460914e+00 -5.764051e-01 6.317692e-01 -2.929867e-01
2.513274e+00 -5.851297e-01 5.732638e-01 -2.900179e-01
2.565634e+00 -5.938517e-01 5.147589e-01 -2.870492e-01
2.617994e+00 -6.025714e-01 4.559256e-01 -2.840804e-01
2.670354e+00 -6.181028e-01 4.075459e-01 -2.938937e-01
2.722714e+00 -6.336280e-01 3.592033e-01 -3.037069e-01
2.775074e+00 -6.491479e-01 3.108895e-01 -3.135201e-01
2.827433e+00 -6.116628e-01 2.736849e-01 -3.534329e-01
2.879793e+00 -5.476875e-01 2.420399e-01 -4.083958e-01
2.932153e+00 -4.836927e-01 2.104101e-01 -4.633582e-01
2.984513e+00 -3.969241e-01 1.856835e-01 -4.500005e-01
3.036873e+00 -2.646155e-01 1.747447e-01 -2.999997e-01
3.089233e+00 -1.317045e-01 1.637637e-01 -1.493159e-01
3.141593e+00 0.000000e+00 1.528907e-01 0.000000e+00
