# Angle of attack [rad] 	 Lift coefficient [-] 	 Drag coefficient [-] 	 Moment coefficient [-]
-3.141592653589793116e+00 0.000000000000000000e+00 2.672927765658029975e-02 0.000000000000000000e+00
-3.089232776029963379e+00 8.703029612170150309e-02 2.788463088693679884e-02 1.200000003610469934e-01
-3.036872898470133197e+00 1.740605909382670069e-01 3.096613276763589967e-02 2.399999989225340136e-01
-2.984513020910303460e+00 2.610913652905770266e-01 3.594315305563700047e-02 3.600006586823850108e-01
-2.932153143350473723e+00 3.481256042148749841e-01 4.570575326917820230e-02 4.022259252887330216e-01
-2.879793265790643542e+00 4.351514788161610081e-01 7.329131870790719927e-02 4.055643892317060129e-01
-2.827433388230813804e+00 5.221865266458870503e-01 1.100596257606440004e-01 4.089032050756800096e-01
-2.775073510670984067e+00 6.092072741934120295e-01 1.530574563566169943e-01 4.184500941027409771e-01
-2.722713633111153886e+00 6.962446390461399792e-01 2.015452563705890099e-01 4.404161731056229767e-01
-2.670353755551324149e+00 7.832735934950270096e-01 2.545810125470659990e-01 4.623750617479789882e-01
-2.617993877991494411e+00 8.703029586126499462e-01 3.119268611847439976e-01 4.815022750847929855e-01
-2.565634000431664230e+00 9.108035964790239802e-01 3.733292557007379942e-01 4.723370647259990118e-01
-2.513274122871834493e+00 8.581876460691719721e-01 4.368901296447639804e-01 4.601880586499080272e-01
-2.460914245312004756e+00 8.114427232888450359e-01 5.033446667419200216e-01 4.483435038411049955e-01
-2.408554367752174574e+00 7.664945298723679912e-01 5.708900759317619977e-01 4.402741504082099966e-01
-2.356194490192344837e+00 7.227090293908550178e-01 6.391902924833500199e-01 4.344651206106159846e-01
-2.303834612632515100e+00 6.799219314506500522e-01 7.076831572094549605e-01 4.286560907479849969e-01
-2.251474735072684918e+00 6.372249479724310106e-01 7.752183016908750224e-01 4.260765671118810216e-01
-2.199114857512855181e+00 5.936851799212640168e-01 8.414229812294929944e-01 4.251567896464740204e-01
-2.146754979953025444e+00 5.491444179157749517e-01 9.059674310431200528e-01 4.254255789050480074e-01
-2.094395102393195263e+00 5.027722915977670404e-01 9.667784358811499779e-01 4.258139377126339831e-01
-2.042035224833365525e+00 4.551108543069489754e-01 1.024136837114919985e+00 4.267420683060459963e-01
-1.989675347273535788e+00 4.063216012252600096e-01 1.077960583434280029e+00 4.279407612944959860e-01
-1.937315469713705829e+00 3.563244473319959749e-01 1.127263427224459935e+00 4.291388492066199878e-01
-1.884955592153875870e+00 3.052020999402120238e-01 1.169918924144109917e+00 4.287661858271260007e-01
-1.832595714594046132e+00 2.536307776027009742e-01 1.207573659952960066e+00 4.280389268063770070e-01
-1.780235837034216173e+00 2.017752032226449999e-01 1.240046424394050106e+00 4.269195664630269782e-01
-1.727875959474386214e+00 1.500170267749139918e-01 1.264887608456370049e+00 4.244796215326259725e-01
-1.675516081914556477e+00 9.899111597375340188e-02 1.282559418275780017e+00 4.203767862416070145e-01
-1.623156204354726517e+00 4.891211801352649685e-02 1.294288130678350024e+00 4.157545379249040218e-01
-1.570796326794896558e+00 -1.915981170645350107e-10 1.299999999977629939e+00 4.111325073751739834e-01
-1.518436449235066599e+00 -4.891211772026699683e-02 1.294288130712599960e+00 4.015080906039609765e-01
-1.466076571675236861e+00 -9.899111583646040546e-02 1.282559418317489985e+00 3.918835509532420103e-01
-1.413716694115406902e+00 -1.500170271804069921e-01 1.264887608261749952e+00 3.818643914002459727e-01
-1.361356816555576943e+00 -2.017752036281380001e-01 1.240046424199440001e+00 3.705655587469099954e-01
-1.308996938995747206e+00 -2.536307773941809951e-01 1.207573660088610001e+00 3.582299849164919947e-01
-1.256637061435917246e+00 -3.052020997004820102e-01 1.169918924340400013e+00 3.456204314842240000e-01
-1.204277183876087287e+00 -3.563244476578389941e-01 1.127263426903140076e+00 3.327922838146840090e-01
-1.151917306316257550e+00 -4.063216008596409745e-01 1.077960583794820071e+00 3.189963796485700276e-01
-1.099557428756427591e+00 -4.551108542400150170e-01 1.024136837192000105e+00 3.052004753461720066e-01
-1.047197551196597631e+00 -5.027722917472889907e-01 9.667784356850720462e-01 2.914434746345799798e-01
-9.948376736367678941e-01 -5.491444174239690224e-01 9.059674316880580447e-01 2.777239512987519920e-01
-9.424777960769379348e-01 -5.936851800060389817e-01 8.414229811060359721e-01 2.640426580621290098e-01
-8.901179185171080865e-01 -6.372249483081939836e-01 7.752183011635439547e-01 2.504421867973150029e-01
-8.377580409572782383e-01 -6.799219316691259563e-01 7.076831568532839789e-01 2.369483971020240054e-01
-7.853981633974482790e-01 -7.227090290173030507e-01 6.391902930744359779e-01 2.236598316699759947e-01
-7.330382858376184307e-01 -7.778833056635450216e-01 5.708900759364360367e-01 2.103721759730849961e-01
-6.806784082777884715e-01 -8.319884990407190317e-01 5.033446666148989612e-01 1.822787197416780025e-01
-6.283185307179586232e-01 -8.856458911399369693e-01 4.368901303188800211e-01 1.341995606675560060e-01
-5.759586531581287749e-01 -9.428784667729880331e-01 3.733292554957979847e-01 8.329419590344590285e-02
-5.235987755982988157e-01 -1.057866902448010071e+00 2.826923532385440252e-01 5.399551698810169803e-02
-5.130210225559090897e-01 -1.085974834682990053e+00 2.618737032095470041e-01 5.023982045461140161e-02
-5.024432695135193638e-01 -1.113856808133169896e+00 2.412879281511390028e-01 4.648478234094229750e-02
-4.918655164711295824e-01 -1.141482323169239921e+00 2.209154375395570025e-01 4.273067627178030181e-02
-4.812877634287397455e-01 -1.150191089611239947e+00 2.083917102201079952e-01 3.929709217046559872e-02
-4.707100103863500196e-01 -1.150745970446150013e+00 1.991497961349220081e-01 3.600057778293590249e-02
-4.601322573439602381e-01 -1.151151995898499925e+00 1.900027008670349959e-01 3.270414130811580278e-02
-4.495545043015704567e-01 -1.151409262467639971e+00 1.808658688747369903e-01 2.940782276206859933e-02
-4.389767512591789544e-01 -1.151517866651619926e+00 1.717365167822010041e-01 2.611167920693889880e-02
-4.283989982167891730e-01 -1.150768860531919957e+00 1.626155255523789867e-01 2.281579310610670069e-02
-4.178212451743993916e-01 -1.149653569891839977e+00 1.536431125649070084e-01 1.961207139123639920e-02
-4.072434921320096657e-01 -1.147841126092109976e+00 1.459387414327950050e-01 1.723335508342420039e-02
-3.966657390896198843e-01 -1.145608684784100051e+00 1.382614043027209916e-01 1.485237006497400029e-02
-3.860879860472301028e-01 -1.142777241155370049e+00 1.306291313209249905e-01 1.246941087826739999e-02
-3.755102330048403769e-01 -1.139049222078529988e+00 1.230805695093259988e-01 1.008556005147280034e-02
-3.649324799624505400e-01 -1.138014259586070054e+00 1.154423491537139995e-01 7.706284812457079789e-03
-3.543547269200608141e-01 -1.137228371319469966e+00 1.076020331322439932e-01 5.328983403161260263e-03
-3.437769738776710327e-01 -1.136120239843650070e+00 1.004971925465709959e-01 3.510022868447529830e-03
-3.331992208352812512e-01 -1.134673068453710076e+00 9.409992458426839901e-02 2.282073976030669828e-03
-3.226214677928914698e-01 -1.133110885531009915e+00 8.770429448285430030e-02 1.070819706002559997e-03
-3.120437147505017439e-01 -1.130981983715009909e+00 8.148454521493750380e-02 -1.837439765000849949e-05
-3.014659617081119070e-01 -1.126896623548959919e+00 7.596495345353300455e-02 -6.081117205032000091e-04
-2.908882086657221810e-01 -1.122791624193510085e+00 7.044607464519310469e-02 -1.199203090757739896e-03
-2.803104556233323996e-01 -1.118670492214969947e+00 6.492780624473669382e-02 -1.791407582579960037e-03
-2.697327025809426182e-01 -1.115495384518540023e+00 5.999216783057310237e-02 -1.756598195713159928e-03
-2.591549495385511159e-01 -1.112422626975190010e+00 5.512123464700979802e-02 -1.653009478748310081e-03
-2.485771964961613345e-01 -1.109346525171909903e+00 5.025030358163130179e-02 -1.550267167808430050e-03
-2.379994434537715531e-01 -1.103954349567529913e+00 4.575364261751980327e-02 -2.024162662448409852e-03
-2.274216904113817994e-01 -1.097010184411749911e+00 4.155717278973670298e-02 -2.909200624425309877e-03
-2.168439373689920457e-01 -1.090054702874829973e+00 3.734032610807289793e-02 -3.585833735554799871e-03
-2.062661843266022643e-01 -1.069972285104179965e+00 3.353115057840520136e-02 -5.657961546530380394e-03
-1.956884312842125107e-01 -1.018462255578389986e+00 3.069576592820839889e-02 -1.091500627236779986e-02
-1.851106782418227292e-01 -9.669116346436009701e-01 2.784411214812750057e-02 -1.617313172444610064e-02
-1.745329251994329478e-01 -9.154622119099400379e-01 2.497578226379500166e-02 -2.155197569328530169e-02
-1.639551721570429998e-01 -8.474591405034880287e-01 2.318843366319889993e-02 -2.745062793476790025e-02
-1.533774191146532462e-01 -7.794527780187180399e-01 2.139915542519120126e-02 -3.331590058562439866e-02
-1.427996660722632982e-01 -7.114318136651389679e-01 1.960755197180119938e-02 -3.915303185122080004e-02
-1.322219130298735168e-01 -6.408577490831689483e-01 1.823943289667519924e-02 -4.437599287330380032e-02
-1.216441599874835688e-01 -5.680179812484129620e-01 1.705351447692770098e-02 -4.936270845229189658e-02
-1.110664069450936348e-01 -4.951772445853739879e-01 1.586753152778000095e-02 -5.437985904704419754e-02
-1.004886539027038533e-01 -4.180038544906520270e-01 1.490390744750830047e-02 -5.959865377114720308e-02
-8.991090086031391926e-02 -3.343302625026570163e-01 1.427392860919590029e-02 -6.507246490018110674e-02
-7.933314781792397130e-02 -2.506526650604540274e-01 1.364396801474549933e-02 -7.054467129023020422e-02
-6.875539477553420376e-02 -1.667230918250899863e-01 1.304958292186579952e-02 -7.595824117638880213e-02
-5.817764173314425580e-02 -8.055965770200129716e-02 1.277517401270900077e-02 -8.086347411664439322e-02
-4.759988869075449519e-02 5.620514927997639736e-03 1.250079102221329959e-02 -8.574550367056760214e-02
-3.702213564836454723e-02 9.181473155305930334e-02 1.222643854082799963e-02 -9.065535158797109749e-02
-2.644438260597477622e-02 1.771567211912219997e-01 1.208191250930189947e-02 -9.503845308400639402e-02
-1.586662956358486296e-02 2.627743371730970057e-01 1.198087660999310085e-02 -9.914792639873409863e-02
-5.288876521194919335e-03 3.473156705255089904e-01 1.194240327326250017e-02 -1.028888947491330003e-01
5.288876521194919335e-03 4.311996890124200066e-01 1.193613474609180047e-02 -1.064385819666660016e-01
1.586662956358486296e-02 5.144508188267380433e-01 1.196207298489269932e-02 -1.097934121368260019e-01
2.644438260597477622e-02 5.967437929505490235e-01 1.203137073854649956e-02 -1.128754871174629942e-01
3.702213564836454723e-02 6.786440428989030105e-01 1.211734640092260000e-02 -1.158525553706910016e-01
4.759988869075449519e-02 7.596807242044429920e-01 1.223942253114180048e-02 -1.185999517619630017e-01
5.817764173314425580e-02 8.401242001243980351e-01 1.238714748294049948e-02 -1.212096924773929940e-01
6.875539477553420376e-02 9.200825782335110281e-01 1.255585352329809980e-02 -1.237067126256770067e-01
7.933314781792415171e-02 9.989988128797210321e-01 1.276752635580000010e-02 -1.259917085034890083e-01
8.991090086031391926e-02 1.077480636906190004e+00 1.299605312412720030e-02 -1.281926494584919862e-01
1.004886539027038533e-01 1.155012314669199958e+00 1.326058186293769918e-02 -1.302120115777440079e-01
1.110664069450938152e-01 1.231608716274720017e+00 1.356628246207920024e-02 -1.320709704061880096e-01
1.216441599874835688e-01 1.307583245996190024e+00 1.389963499591520026e-02 -1.338229984541390027e-01
1.322219130298733503e-01 1.381592050885660061e+00 1.431204548179810035e-02 -1.352828782562350007e-01
1.427996660722632982e-01 1.454760139945769915e+00 1.475544830261770086e-02 -1.366178270738790113e-01
1.533774191146532462e-01 1.526208246196649965e+00 1.526127710304110013e-02 -1.376971245037539870e-01
1.639551721570429998e-01 1.595310307915730030e+00 1.585425048577409832e-02 -1.384627495784939988e-01
1.745329251994329478e-01 1.663166474093880076e+00 1.649425081032879908e-02 -1.390593811895750043e-01
1.851106782418227292e-01 1.726545360338100021e+00 1.732721960418789897e-02 -1.391118628785280031e-01
1.956884312842125107e-01 1.788051678777369924e+00 1.827143228786489923e-02 -1.389630883804509887e-01
2.062661843266022643e-01 1.844181415178760108e+00 1.942282962284560058e-02 -1.384402345592619932e-01
2.168439373689920457e-01 1.893063552052530074e+00 2.096173389605840084e-02 -1.375168692037609941e-01
2.274216904113817994e-01 1.938041166981050001e+00 2.271630664979840120e-02 -1.363976267011290100e-01
2.379994434537715531e-01 1.967979630492350029e+00 2.548337182277420065e-02 -1.348364412743739971e-01
2.485771964961613345e-01 1.990336010897530095e+00 2.873958555753190064e-02 -1.331858719057699980e-01
2.591549495385511159e-01 2.003088580904739846e+00 3.267331648700699809e-02 -1.313786593009219905e-01
2.697327025809426182e-01 2.005884605846810054e+00 3.798379908735950022e-02 -1.294995103148310067e-01
2.803104556233323996e-01 2.004028147711220065e+00 4.390746526779430031e-02 -1.276083965541059961e-01
2.908882086657221810e-01 1.988454664875330069e+00 5.155743968426299700e-02 -1.258209180132789928e-01
3.014659617081119070e-01 1.972553145547210063e+00 5.922123669525879847e-02 -1.240247594680379956e-01
3.120437147505017439e-01 1.956492576350469914e+00 6.689667268772329922e-02 -1.222192826910040026e-01
3.226214677928914698e-01 1.913833301443939927e+00 7.751702204722130118e-02 -1.214198667416289956e-01
3.331992208352812512e-01 1.864433745721340019e+00 8.887779853794640361e-02 -1.208741063474080002e-01
3.437769738776710327e-01 1.814925281113590083e+00 1.002450416878999939e-01 -1.203180109018699984e-01
3.543547269200608141e-01 1.771314455355240014e+00 1.124563045858460036e-01 -1.215246029047319931e-01
3.649324799624505400e-01 1.733630949766649998e+00 1.255096438771109990e-01 -1.245124477902130045e-01
3.755102330048403769e-01 1.695877748799240026e+00 1.385678130332129998e-01 -1.275024061547020138e-01
3.860879860472301028e-01 1.658044453799289997e+00 1.516322259187229959e-01 -1.304947161012380008e-01
3.966657390896198843e-01 1.620118489186840094e+00 1.647049079168159957e-01 -1.334896527068089866e-01
4.072434921320096657e-01 1.582084501328590020e+00 1.777888666266070061e-01 -1.364875353895209920e-01
4.178212451743993916e-01 1.543923546575900030e+00 1.904525227451709934e-01 -1.394887370394850001e-01
4.283989982167891730e-01 1.526200767035660100e+00 2.028640943674329955e-01 -1.431964697648749896e-01
4.389767512591789544e-01 1.510299278185269989e+00 2.152474678999110047e-01 -1.469835272052369968e-01
4.495545043015704567e-01 1.493247127570449972e+00 2.276348922619239878e-01 -1.507717386212429900e-01
4.601322573439602381e-01 1.475872150593600107e+00 2.400269682905369906e-01 -1.545611645219640007e-01
4.707100103863500196e-01 1.458136224411040072e+00 2.524244218283819841e-01 -1.583518673311490044e-01
4.812877634287397455e-01 1.439992132367369893e+00 2.648281380169810184e-01 -1.621439116958240112e-01
4.918655164711295824e-01 1.424434888758439932e+00 2.770723034967769727e-01 -1.657783500885879890e-01
5.024432695135193638e-01 1.415708817840650058e+00 2.889540108035860144e-01 -1.690374900812159908e-01
5.130210225559090897e-01 1.406543045147560012e+00 3.008582031299359971e-01 -1.722883710969040083e-01
5.235987755982988157e-01 1.396530389343249912e+00 3.127749916594350088e-01 -1.755295663037209908e-01
5.759586531581287749e-01 1.336976887506069911e+00 3.733292554957979847e-01 -1.918994580900940106e-01
6.283185307179586232e-01 1.256416180721610099e+00 4.368901303188800211e-01 -2.094601107083610136e-01
6.806784082777884715e-01 1.181828193743339916e+00 5.033446666148989612e-01 -2.266861570069229892e-01
7.330382858376184307e-01 1.107465805411570026e+00 5.708900759364360367e-01 -2.411736403612100010e-01
7.853981633974482790e-01 1.032441470024719976e+00 6.391902930744359779e-01 -2.536193167818669991e-01
8.377580409572782383e-01 9.713170452416090006e-01 7.076831568532839789e-01 -2.660658232880869778e-01
8.901179185171080865e-01 9.103213547259909610e-01 7.752183011635439547e-01 -2.778357135691669755e-01
9.424777960769379348e-01 8.481216857229130213e-01 8.414229811060359721e-01 -2.892586397429259826e-01
9.948376736367678941e-01 7.844920248913840322e-01 9.059674316880590439e-01 -3.004288497082450160e-01
1.047197551196597631e+00 7.182461310675549715e-01 9.667784356850720462e-01 -3.115421062085420023e-01
1.099557428756427591e+00 6.501583632000209612e-01 1.024136837192000105e+00 -3.225255284420119883e-01
1.151917306316257550e+00 5.804594297994879470e-01 1.077960583794820071e+00 -3.333948307554759904e-01
1.204277183876087287e+00 5.090349252254839918e-01 1.127263426903140076e+00 -3.442641329615659940e-01
1.256637061435917246e+00 4.360029995721170226e-01 1.169918924340400013e+00 -3.546456194344240198e-01
1.308996938995747206e+00 3.623296819916870248e-01 1.207573660088610001e+00 -3.649169193658540200e-01
1.361356816555576943e+00 2.882502908973400002e-01 1.240046424199440001e+00 -3.750509453262240167e-01
1.413716694115406902e+00 2.143100388291520053e-01 1.264887608261749952e+00 -3.846591709949889748e-01
1.466076571675236861e+00 1.414158797663719880e-01 1.282559418317489985e+00 -3.936136633214710190e-01
1.518436449235066599e+00 6.987445388609550556e-02 1.294288130712599960e+00 -4.023731634210540031e-01
1.570796326794896558e+00 2.737114611119380233e-10 1.299999999977629939e+00 -4.111325073785629947e-01
1.623156204354726517e+00 -4.891211801352630256e-02 1.294288130678350024e+00 -4.157545379249040218e-01
1.675516081914556477e+00 -9.899111597375369331e-02 1.282559418275780017e+00 -4.203767862416070145e-01
1.727875959474386214e+00 -1.500170267749139918e-01 1.264887608456370049e+00 -4.244796215326259725e-01
1.780235837034216173e+00 -2.017752032226449999e-01 1.240046424394050106e+00 -4.269195664630269782e-01
1.832595714594046132e+00 -2.536307776027019734e-01 1.207573659952960066e+00 -4.280389268063770070e-01
1.884955592153875870e+00 -3.052020999402120238e-01 1.169918924144109917e+00 -4.287661858271260007e-01
1.937315469713705829e+00 -3.563244473319969741e-01 1.127263427224459935e+00 -4.291388492066199878e-01
1.989675347273535788e+00 -4.063216012252600096e-01 1.077960583434280029e+00 -4.279407612944959860e-01
2.042035224833365525e+00 -4.551108543069489754e-01 1.024136837114919985e+00 -4.267420683060459963e-01
2.094395102393195263e+00 -5.027722915977680396e-01 9.667784358811499779e-01 -4.258139377126339831e-01
2.146754979953025444e+00 -5.491444179157749517e-01 9.059674310431200528e-01 -4.254255789050480074e-01
2.199114857512855181e+00 -5.936851799212640168e-01 8.414229812294929944e-01 -4.251567896464740204e-01
2.251474735072684918e+00 -6.372249479724310106e-01 7.752183016908740232e-01 -4.260765671118810216e-01
2.303834612632515100e+00 -6.799219314506500522e-01 7.076831572094539613e-01 -4.286560907479859961e-01
2.356194490192344837e+00 -7.227090293908550178e-01 6.391902924833500199e-01 -4.344651206106159846e-01
2.408554367752174574e+00 -7.664945298723689904e-01 5.708900759317609985e-01 -4.402741504082099966e-01
2.460914245312004756e+00 -8.114427232888450359e-01 5.033446667419190224e-01 -4.483435038411049955e-01
2.513274122871834493e+00 -8.581876460691719721e-01 4.368901296447639804e-01 -4.601880586499080272e-01
2.565634000431664230e+00 -9.108035964790249794e-01 3.733292557007379942e-01 -4.723370647259990118e-01
2.617993877991494411e+00 -8.703029586126489470e-01 3.119268611847429984e-01 -4.815022750847929855e-01
2.670353755551324149e+00 -7.832726626533510483e-01 2.545804309724210013e-01 -4.623748269083989837e-01
2.722713633111153886e+00 -6.962423666940540379e-01 2.015439283275320126e-01 -4.404155996855870225e-01
2.775073510670984067e+00 -6.092120707347560282e-01 1.530600469705090116e-01 -4.184513047675870179e-01
2.827433388230813804e+00 -5.221817747754590178e-01 1.100575318305680034e-01 -4.289030229179099929e-01
2.879793265790643542e+00 -4.351514788161610081e-01 7.329131870790729641e-02 -4.555643893982320169e-01
