# Angle of attack [rad] 	 Lift coefficient [-] 	 Drag coefficient [-] 	 Moment coefficient [-]
-3.141592653589793116e+00 0.000000000000000000e+00 2.802701487322449905e-02 0.000000000000000000e+00
-3.089232776029963379e+00 8.820045742588010496e-02 2.918077845264969994e-02 1.200000003610469934e-01
-3.036872898470133197e+00 1.764009135290759978e-01 3.225804806505339767e-02 2.399999989225340136e-01
-2.984513020910303460e+00 2.646018556155900203e-01 3.722826193602619960e-02 3.600006586823850108e-01
-2.932153143350473723e+00 3.528063088568130223e-01 4.654489796791289741e-02 4.029409598940880133e-01
-2.879793265790643542e+00 4.410022853129549891e-01 7.286311568233959368e-02 4.073518395466260156e-01
-2.827433388230813804e+00 5.292075583357029878e-01 1.096577134904099943e-01 4.117631841414229887e-01
-2.775073510670984067e+00 6.173983388025500174e-01 1.526725475267040055e-01 4.220628974534609834e-01
-2.722713633111153886e+00 7.056059600017100530e-01 2.011721802610250132e-01 4.441440116962649953e-01
-2.670353755551324149e+00 7.938050577153850096e-01 2.542188811474470067e-01 4.662196875954209840e-01
-2.617993877991494411e+00 8.820045716194200303e-01 3.115759041490069881e-01 4.854092751654339732e-01
-2.565634000431664230e+00 9.227426434366929886e-01 3.729901792690180073e-01 4.757525940553289923e-01
-2.513274122871834493e+00 8.685031812022919739e-01 4.365633576951200023e-01 4.630205389509610137e-01
-2.460914245312004756e+00 8.204216928991100444e-01 5.030312323387100548e-01 4.505534938877300277e-01
-2.408554367752174574e+00 7.742857390803949968e-01 5.705906023937800109e-01 4.419320685353470002e-01
-2.356194490192344837e+00 7.294531606630999532e-01 6.389054173343170495e-01 4.356670485076249988e-01
-2.303834612632515100e+00 6.857215135690809538e-01 7.074137131050789451e-01 4.294020284097619933e-01
-2.251474735072684918e+00 6.421422891444099612e-01 7.749650680417440318e-01 4.265004624151729762e-01
-2.199114857512855181e+00 5.978042013652290487e-01 8.411865172851259453e-01 4.253274826732469927e-01
-2.146754979953025444e+00 5.525436703937729455e-01 9.057482818751499964e-01 4.254113176024469922e-01
-2.094395102393195263e+00 5.055577646836549865e-01 9.665773769042029784e-01 4.257107148421719889e-01
-2.042035224833365525e+00 4.573486777145889803e-01 1.023954346229519974e+00 4.265813847120349944e-01
-1.989675347273535788e+00 4.080706861532720220e-01 1.077797077898480005e+00 4.277421819998389885e-01
-1.937315469713705829e+00 3.576494096372599962e-01 1.127119354349110036e+00 4.289010542974689977e-01
-1.884955592153875870e+00 3.061790717189289968e-01 1.169794762626940043e+00 4.285272623074810050e-01
-1.832595714594046132e+00 2.543094758573680170e-01 1.207469681307699938e+00 4.278076296452850147e-01
-1.780235837034216173e+00 2.022044606565550073e-01 1.239962875832899991e+00 4.267014013631970082e-01
-1.727875959474386214e+00 1.502623681565040115e-01 1.264824765031230092e+00 4.242821045306729988e-01
-1.675516081914556477e+00 9.910919365134990278e-02 1.282517441930109969e+00 4.202091206473589913e-01
-1.623156204354726517e+00 4.894850950419900315e-02 1.294267110747310046e+00 4.156190795057330134e-01
-1.570796326794896558e+00 -1.917406695319670059e-10 1.299999999977540011e+00 4.110284758553450213e-01
-1.518436449235066599e+00 -4.894850921072130268e-02 1.294267110781680108e+00 4.014330393087329751e-01
-1.466076571675236861e+00 -9.910919351376069886e-02 1.282517441971869898e+00 3.918364877665350132e-01
-1.413716694115406902e+00 -1.502623685634379980e-01 1.264824764836459892e+00 3.818453109586469885e-01
-1.361356816555576943e+00 -2.022044610634889938e-01 1.239962875638130013e+00 3.705888175319410061e-01
-1.308996938995747206e+00 -2.543094756478009866e-01 1.207469681443440024e+00 3.583245505787679974e-01
-1.256637061435917246e+00 -3.061790714776079780e-01 1.169794762823330059e+00 3.457902745335549866e-01
-1.204277183876087287e+00 -3.576494099658670267e-01 1.127119354027660059e+00 3.330429175754079929e-01
-1.151917306316257550e+00 -4.080706857845520230e-01 1.077797078259159935e+00 3.193522126209800138e-01
-1.099557428756427591e+00 -4.573486776469409820e-01 1.023954346306630070e+00 3.056615075313059982e-01
-1.047197551196597631e+00 -5.055577648351550213e-01 9.665773767080669820e-01 2.920174726408579780e-01
-9.948376736367678941e-01 -5.525436698954570014e-01 9.057482825202809451e-01 2.783876364077569887e-01
-9.424777960769379348e-01 -5.978042014513860192e-01 8.411865171616369485e-01 2.648058464406560231e-01
-8.901179185171080865e-01 -6.421422894868580311e-01 7.749650675142849554e-01 2.513084036189279780e-01
-8.377580409572782383e-01 -6.857215137927850090e-01 7.074137127488280274e-01 2.379194553307449889e-01
-7.853981633974482790e-01 -7.294531602817350135e-01 6.389054179255370114e-01 2.247369927941020029e-01
-7.330382858376184307e-01 -7.931129213740000239e-01 5.705906023984560482e-01 2.115563156305839965e-01
-6.806784082777884715e-01 -8.543755124464039730e-01 5.030312322116630153e-01 1.832351879795409977e-01
-6.283185307179586232e-01 -9.138604183045200280e-01 4.365633583693659947e-01 1.343612471045129986e-01
-5.759586531581287749e-01 -9.756919494594219477e-01 3.729901790640379744e-01 8.274913849029469359e-02
-5.235987755982988157e-01 -1.094217407826240107e+00 2.812973128752799812e-01 5.334455207541209665e-02
-5.130210225559090897e-01 -1.122227176440190100e+00 2.601420622468419985e-01 4.962969724014280187e-02
-5.024432695135193638e-01 -1.149949895669430067e+00 2.392742226310340115e-01 4.591515061114059826e-02
-4.918655164711295824e-01 -1.177357811003620025e+00 2.185973078128340130e-01 4.220113461692050205e-02
-4.812877634287397455e-01 -1.185492645048610072e+00 2.060391230141070118e-01 3.880841295730540208e-02
-4.707100103863500196e-01 -1.185295949525490000e+00 1.968753344609109890e-01 3.555296758466180290e-02
-4.601322573439602381e-01 -1.184902886485700080e+00 1.878913087231179890e-01 3.229727011489459676e-02
-4.495545043015704567e-01 -1.184313601488039991e+00 1.789204286799389865e-01 2.904131297948640139e-02
-4.389767512591789544e-01 -1.183528240089330108e+00 1.699564396627110119e-01 2.578509579626200171e-02
-4.283989982167891730e-01 -1.181376749919820002e+00 1.610001532783749967e-01 2.252863092303369896e-02
-4.178212451743993916e-01 -1.178538174862840071e+00 1.522077245528649925e-01 1.936523737414120108e-02
-4.072434921320096657e-01 -1.173525047318719983e+00 1.448262975300859956e-01 1.703864367968260102e-02
-3.966657390896198843e-01 -1.168128967738389923e+00 1.374697761899409953e-01 1.470714636514000064e-02
-3.860879860472301028e-01 -1.162186720254960060e+00 1.301547712103240106e-01 1.237088725239299941e-02
-3.755102330048403769e-01 -1.155426978889569911e+00 1.229168870297250027e-01 1.003072603765199980e-02
-3.649324799624505400e-01 -1.152078574772690045e+00 1.155325935270500037e-01 7.691553205820600425e-03
-3.543547269200608141e-01 -1.148916396039020071e+00 1.079358072293949977e-01 5.373703389519900349e-03
-3.437769738776710327e-01 -1.145090342455439947e+00 1.010520279603060040e-01 3.551544548162650049e-03
-3.331992208352812512e-01 -1.140567791868430048e+00 9.482650021966959608e-02 2.259761299428830143e-03
-3.226214677928914698e-01 -1.135821868706909932e+00 8.860418655330920545e-02 1.000738926024709969e-03
-3.120437147505017439e-01 -1.130568421195750073e+00 8.254542666839920217e-02 -1.379219352161239944e-04
-3.014659617081119070e-01 -1.123887761496910054e+00 7.713427678676540444e-02 -7.731267820492160325e-04
-2.908882086657221810e-01 -1.117168959046719978e+00 7.172452597639679406e-02 -1.410988758649790080e-03
-2.803104556233323996e-01 -1.110418824212120015e+00 6.631597300663269468e-02 -2.051035081565990171e-03
-2.697327025809426182e-01 -1.105051330110609964e+00 6.140953063951989921e-02 -2.069896875762840174e-03
-2.591549495385511159e-01 -1.099832095235359963e+00 5.655881662956720179e-02 -2.021482490215800037e-03
-2.485771964961613345e-01 -1.094606365220619937e+00 5.170810677625749946e-02 -1.974729058814139911e-03
-2.379994434537715531e-01 -1.088197716867379983e+00 4.722031109489079753e-02 -2.320705445298949787e-03
-2.274216904113817994e-01 -1.080985034977500092e+00 4.302114545955990077e-02 -2.980930571461439926e-03
-2.168439373689920457e-01 -1.073750374690060072e+00 3.880320749677689668e-02 -3.376944162894799858e-03
-2.062661843266022643e-01 -1.054847786275239896e+00 3.495557950310020090e-02 -4.972223251293900192e-03
-1.956884312842125107e-01 -1.007961287484830049e+00 3.199297369475460201e-02 -9.438967599936639793e-03
-1.851106782418227292e-01 -9.609039488700940046e-01 2.901570845329120088e-02 -1.390670759194490014e-02
-1.745329251994329478e-01 -9.136542514254010205e-01 2.602348363639910012e-02 -1.861107368384199920e-02
-1.639551721570429998e-01 -8.455576186178930254e-01 2.414632206394769914e-02 -2.497604153577739905e-02
-1.533774191146532462e-01 -7.774397637535980232e-01 2.226743173541659987e-02 -3.126583501104290147e-02
-1.427996660722632982e-01 -7.092730852029840438e-01 2.038646712382000126e-02 -3.748822805006359754e-02
-1.322219130298735168e-01 -6.383195353845220188e-01 1.894873626837929870e-02 -4.300140497133100176e-02
-1.216441599874835688e-01 -5.651203418208919915e-01 1.770159467351320112e-02 -4.824639293702469994e-02
-1.110664069450936348e-01 -4.919192666227609756e-01 1.645440106183899964e-02 -5.351930785142589714e-02
-1.004886539027038533e-01 -4.145481910065810238e-01 1.543836263888729958e-02 -5.894297942292950343e-02
-8.991090086031391926e-02 -3.309197422188570048e-01 1.476916545679170072e-02 -6.454828043785269809e-02
-7.933314781792397130e-02 -2.472835141363350087e-01 1.410002286085169920e-02 -7.015000734839929586e-02
-6.875539477553420376e-02 -1.633200280440590124e-01 1.346905219058540035e-02 -7.569492155780130349e-02
-5.817764173314425580e-02 -7.647710100640320308e-02 1.318103361287289998e-02 -8.076800115695499660e-02
-4.759988869075449519e-02 1.039833514831460005e-02 1.289307949500759914e-02 -8.581935887659629392e-02
-3.702213564836454723e-02 9.730104720535649732e-02 1.260520072393950079e-02 -9.095799885095960657e-02
-2.644438260597477622e-02 1.834112866934139996e-01 1.245232046607789959e-02 -9.556632958449519377e-02
-1.586662956358486296e-02 2.697513785153979882e-01 1.234456668956769934e-02 -9.984571693391719460e-02
-5.288876521194919335e-03 3.550148855287890148e-01 1.230134783374860034e-02 -1.037333744907159988e-01
5.288876521194919335e-03 4.395946114295369855e-01 1.229128502649469955e-02 -1.074226381316539941e-01
1.586662956358486296e-02 5.235126684920899942e-01 1.231438027657989938e-02 -1.109063123361569980e-01
2.644438260597477622e-02 6.064143282425900061e-01 1.238196534690770047e-02 -1.140984136365259943e-01
3.702213564836454723e-02 6.889019516007439670e-01 1.246689345426009975e-02 -1.171792055769050045e-01
4.759988869075449519e-02 7.704791401059489786e-01 1.258976247090340048e-02 -1.200161888993979964e-01
5.817764173314425580e-02 8.514317612331679941e-01 1.273931207955980062e-02 -1.227072020267239993e-01
6.875539477553420376e-02 9.318736378970819967e-01 1.291069183839090029e-02 -1.252786126999259897e-01
7.933314781792415171e-02 1.011221645985580064e+00 1.312664180890900020e-02 -1.276240978842110019e-01
8.991090086031391926e-02 1.090125708450689901e+00 1.335972999447609944e-02 -1.298826903386390008e-01
1.004886539027038533e-01 1.168067807301919947e+00 1.362913846367289940e-02 -1.319556305556159881e-01
1.110664069450938152e-01 1.245064641492090063e+00 1.394007370843279928e-02 -1.338630977930989896e-01
1.216441599874835688e-01 1.321434209622430078e+00 1.427891926472439968e-02 -1.356602670457849880e-01
1.322219130298733503e-01 1.395802833581869962e+00 1.469660625442400018e-02 -1.371564096070020111e-01
1.427996660722632982e-01 1.469311882479430009e+00 1.514674147778449949e-02 -1.385231102466019937e-01
1.533774191146532462e-01 1.541059292889839893e+00 1.566260614927210068e-02 -1.396246404867149959e-01
1.639551721570429998e-01 1.610407222545819916e+00 1.626907853825339950e-02 -1.403994360548480036e-01
1.745329251994329478e-01 1.678500639967829944e+00 1.692484852505269852e-02 -1.409983048315940068e-01
1.851106782418227292e-01 1.742243439834729957e+00 1.778548947665200067e-02 -1.410546351610429960e-01
1.956884312842125107e-01 1.804431349111339955e+00 1.876664375053420028e-02 -1.409126081712699929e-01
2.062661843266022643e-01 1.860048995731619970e+00 1.997242116088860167e-02 -1.404014105697239945e-01
2.168439373689920457e-01 1.907370674257699905e+00 2.163106738501650167e-02 -1.395009379768120117e-01
2.274216904113817994e-01 1.950407655196829904e+00 2.354204841133630127e-02 -1.384180886728529902e-01
2.379994434537715531e-01 1.977133976651590075e+00 2.663453591598050063e-02 -1.370679931248779959e-01
2.485771964961613345e-01 1.996940362034899996e+00 3.023766809446100032e-02 -1.356609702253039895e-01
2.591549495385511159e-01 2.008411063282559805e+00 3.455806031794529665e-02 -1.341275669939619997e-01
2.697327025809426182e-01 2.012258891415919848e+00 4.003294010641249984e-02 -1.325474772226230002e-01
2.803104556233323996e-01 2.012449435597579939e+00 4.602018791787709784e-02 -1.309432256665729877e-01
2.908882086657221810e-01 2.000850650525579866e+00 5.349134516524529925e-02 -1.292241026343780019e-01
3.014659617081119070e-01 1.988952763101369925e+00 6.098962733257219659e-02 -1.274973261479210029e-01
3.120437147505017439e-01 1.976909854647640019e+00 6.851074938282569748e-02 -1.257622766506510115e-01
3.226214677928914698e-01 1.937700584376290003e+00 7.894806992285580138e-02 -1.247829535811589979e-01
3.331992208352812512e-01 1.891617111088490066e+00 9.012267977769559957e-02 -1.240164411454850041e-01
3.437769738776710327e-01 1.845434335117920099e+00 1.013099795521909957e-01 -1.232614378400120059e-01
3.543547269200608141e-01 1.804361851134860029e+00 1.133379320740449947e-01 -1.242723270018789988e-01
3.649324799624505400e-01 1.768426722487949965e+00 1.262027239029240022e-01 -1.270538503840170086e-01
3.755102330048403769e-01 1.732428045875380018e+00 1.390769936700340104e-01 -1.298395282964459885e-01
3.860879860472301028e-01 1.696356339846579964e+00 1.519635158880210113e-01 -1.326298297290519901e-01
3.966657390896198843e-01 1.660200138038399942e+00 1.648662650897700088e-01 -1.354252968493349918e-01
4.072434921320096657e-01 1.623945441069839957e+00 1.777911432703880024e-01 -1.382265597629240006e-01
4.178212451743993916e-01 1.587574976198379950e+00 1.901979749256270114e-01 -1.410343549322490009e-01
4.283989982167891730e-01 1.571678762512140004e+00 2.025454251838399999e-01 -1.447681978560269866e-01
4.389767512591789544e-01 1.557426394525510016e+00 2.148863368774300009e-01 -1.486066690624119890e-01
4.495545043015704567e-01 1.541416429987350067e+00 2.272309804888709983e-01 -1.524475251272029985e-01
4.601322573439602381e-01 1.525039817282630050e+00 2.395799095528280132e-01 -1.562908754236529973e-01
4.707100103863500196e-01 1.508261564725440040e+00 2.519337927681570277e-01 -1.601368340299240134e-01
4.812877634287397455e-01 1.491038333723569975e+00 2.642934455914000003e-01 -1.639855202178009952e-01
4.918655164711295824e-01 1.475864796639380083e+00 2.765178657101419746e-01 -1.676579221604860004e-01
5.024432695135193638e-01 1.466299494368179968e+00 2.884357960308669977e-01 -1.709089726455340075e-01
5.130210225559090897e-01 1.455993897003069915e+00 3.003744411817499960e-01 -1.741524231727639982e-01
5.235987755982988157e-01 1.444149928807539895e+00 3.123246908681939771e-01 -1.773869593659219979e-01
5.759586531581287749e-01 1.377484303181359948e+00 3.729901790640379744e-01 -1.937293468141000063e-01
6.283185307179586232e-01 1.291095392148789989e+00 4.365633583693659947e-01 -2.112317062142740065e-01
6.806784082777884715e-01 1.209491127612599914e+00 5.030312322116640145e-01 -2.283943463253700068e-01
7.330382858376184307e-01 1.126779637414099922e+00 5.705906023984560482e-01 -2.427656630741200083e-01
7.853981633974482790e-01 1.042075943259620052e+00 6.389054179255370114e-01 -2.550553781896729988e-01
8.377580409572782383e-01 9.796021625611219807e-01 7.074137127488280274e-01 -2.673467223685749850e-01
8.901179185171080865e-01 9.173461278383689965e-01 7.749650675142849554e-01 -2.789648572064850063e-01
9.424777960769379348e-01 8.540060020734090429e-01 8.411865171616369485e-01 -2.902385203204019826e-01
9.948376736367678941e-01 7.893480998506530177e-01 9.057482825202809451e-01 -3.012628825116310249e-01
1.047197551196597631e+00 7.222253783359350310e-01 9.665773767080669820e-01 -3.122442996328140263e-01
1.099557428756427591e+00 6.533552537813449579e-01 1.023954346306630070e+00 -3.231223346528540041e-01
1.151917306316257550e+00 5.829581225493599694e-01 1.077797078259159935e+00 -3.338521250381860095e-01
1.204277183876087287e+00 5.109277285226659915e-01 1.127119354027660059e+00 -3.445819153175220251e-01
1.256637061435917246e+00 4.373986735394400083e-01 1.169794762823330059e+00 -3.548632144899950269e-01
1.308996938995747206e+00 3.632992509254299729e-01 1.207469681443440024e+00 -3.650432096582990060e-01
1.361356816555576943e+00 2.888635158049839835e-01 1.239962875638130013e+00 -3.750922504247080069e-01
1.413716694115406902e+00 2.146605265191960099e-01 1.264824764836459892e+00 -3.846443633251300231e-01
1.466076571675236861e+00 1.415845621625149986e-01 1.282517441971869898e+00 -3.935691228595559754e-01
1.518436449235066599e+00 6.992644172960170434e-02 1.294267110781680108e+00 -4.022994423803389896e-01
1.570796326794896558e+00 2.739151045276659964e-10 1.299999999977540011e+00 -4.110284758587389731e-01
1.623156204354726517e+00 -4.894850950419880192e-02 1.294267110747310046e+00 -4.156190795057330134e-01
1.675516081914556477e+00 -9.910919365135019421e-02 1.282517441930109969e+00 -4.202091206473589913e-01
1.727875959474386214e+00 -1.502623681565040115e-01 1.264824765031230092e+00 -4.242821045306729988e-01
1.780235837034216173e+00 -2.022044606565550073e-01 1.239962875832899991e+00 -4.267014013631970082e-01
1.832595714594046132e+00 -2.543094758573680170e-01 1.207469681307699938e+00 -4.278076296452850147e-01
1.884955592153875870e+00 -3.061790717189279976e-01 1.169794762626940043e+00 -4.285272623074810050e-01
1.937315469713705829e+00 -3.576494096372599962e-01 1.127119354349110036e+00 -4.289010542974689977e-01
1.989675347273535788e+00 -4.080706861532720220e-01 1.077797077898480005e+00 -4.277421819998389885e-01
2.042035224833365525e+00 -4.573486777145889803e-01 1.023954346229519974e+00 -4.265813847120349944e-01
2.094395102393195263e+00 -5.055577646836549865e-01 9.665773769042029784e-01 -4.257107148421719889e-01
2.146754979953025444e+00 -5.525436703937729455e-01 9.057482818751509956e-01 -4.254113176024469922e-01
2.199114857512855181e+00 -5.978042013652290487e-01 8.411865172851259453e-01 -4.253274826732469927e-01
2.251474735072684918e+00 -6.421422891444109604e-01 7.749650680417430326e-01 -4.265004624151729762e-01
2.303834612632515100e+00 -6.857215135690809538e-01 7.074137131050779459e-01 -4.294020284097619933e-01
2.356194490192344837e+00 -7.294531606630999532e-01 6.389054173343170495e-01 -4.356670485076249988e-01
2.408554367752174574e+00 -7.742857390803959960e-01 5.705906023937800109e-01 -4.419320685353470002e-01
2.460914245312004756e+00 -8.204216928991100444e-01 5.030312323387100548e-01 -4.505534938877300277e-01
2.513274122871834493e+00 -8.685031812022919739e-01 4.365633576951200023e-01 -4.630205389509610137e-01
2.565634000431664230e+00 -9.227426434366929886e-01 3.729901792690180073e-01 -4.757525940553289923e-01
2.617993877991494411e+00 -8.820045716194190311e-01 3.115759041490069881e-01 -4.854092751654339732e-01
2.670353755551324149e+00 -7.938041143581260339e-01 2.542182994579960109e-01 -4.662194514980280147e-01
2.722713633111153886e+00 -7.056036570968340360e-01 2.011708519280029916e-01 -4.441434352489370130e-01
2.775073510670984067e+00 -6.174031998355400397e-01 1.526751388795669906e-01 -4.220641144049049887e-01
2.827433388230813804e+00 -5.292027425742480418e-01 1.096556182796079998e-01 -4.317629434265800037e-01
2.879793265790643542e+00 -4.410022853129549891e-01 7.286311568233970470e-02 -4.573518397131530189e-01
