# Angle of attack [rad] 	 Lift coefficient [-] 	 Drag coefficient [-] 	 Moment coefficient [-]
-3.141592653589793116e+00 7.196487950624170459e-19 1.353795512131420083e-02 0.000000000000000000e+00
-3.089232776029963379e+00 7.454724760408409923e-02 1.490718111689270063e-02 1.200000003610469934e-01
-3.036872898470133197e+00 1.490944940902330096e-01 1.855966399834589955e-02 2.399999989225340136e-01
-2.984513020910303460e+00 2.236421513306980080e-01 2.446062313031229993e-02 3.600006586823850108e-01
-2.932153143350473723e+00 2.981927762079220057e-01 3.923493758946770132e-02 3.922862871797510032e-01
-2.879793265790643542e+00 3.727362364851560250e-01 7.467610225417360692e-02 3.807171872431069914e-01
-2.827433388230813804e+00 4.472875542437779739e-01 1.179886609806790054e-01 3.691468678301069728e-01
-2.775073510670984067e+00 5.218266228578419819e-01 1.689060804071990107e-01 3.690290869474799895e-01
-2.722713633111153886e+00 5.963799253010519941e-01 2.260011714860959975e-01 3.918204213337380115e-01
-2.670353755551324149e+00 6.709260236729730487e-01 2.882311973995719812e-01 4.146119109597489749e-01
-2.617993877991494411e+00 7.454724738100290127e-01 3.553434510324319784e-01 4.355616950535439735e-01
-2.565634000431664230e+00 7.877483370759019721e-01 4.270602288597120100e-01 4.380964178464599734e-01
-2.513274122871834493e+00 7.655224006438640094e-01 5.011802766089079597e-01 4.388686285328720071e-01
-2.460914245312004756e+00 7.435294343719119903e-01 5.785841241299559679e-01 4.399473654135189760e-01
-2.408554367752174574e+00 7.204618989743589719e-01 6.571829937570210500e-01 4.422653100253849945e-01
-2.356194490192344837e+00 6.959915763118540433e-01 7.365997932065500020e-01 4.445233776027580075e-01
-2.303834612632515100e+00 6.689269759017789641e-01 8.161956234779480512e-01 4.467814452054120200e-01
-2.251474735072684918e+00 6.382914139662260178e-01 8.945068162871530060e-01 4.504603143283399946e-01
-2.199114857512855181e+00 6.039759798293220516e-01 9.710382284712210099e-01 4.548693786469690248e-01
-2.146754979953025444e+00 5.669229355202369813e-01 1.045619604572850081e+00 4.597921527748140003e-01
-2.094395102393195263e+00 5.256198866853030172e-01 1.115862422430409895e+00 4.644320837656790157e-01
-2.042035224833365525e+00 4.814954665495240205e-01 1.182094621973480031e+00 4.684497596813840259e-01
-1.989675347273535788e+00 4.348816612332960241e-01 1.244224828567989993e+00 4.720783044776100112e-01
-1.937315469713705829e+00 3.855711069802330027e-01 1.301117367018890025e+00 4.756932046237780098e-01
-1.884955592153875870e+00 3.333629415809880037e-01 1.350320280089819969e+00 4.765502999422969732e-01
-1.832595714594046132e+00 2.795952502783289884e-01 1.393735932234509978e+00 4.767844700748720133e-01
-1.780235837034216173e+00 2.245602150516849971e-01 1.431156572054709919e+00 4.764305970524860268e-01
-1.727875959474386214e+00 1.683771075925029892e-01 1.459756436436179916e+00 4.743628104747860119e-01
-1.675516081914556477e+00 1.119491401546320042e-01 1.480069965004650046e+00 4.701367623578249777e-01
-1.623156204354726517e+00 5.573702141492559853e-02 1.493512791489630009e+00 4.652362574868559864e-01
-1.570796326794896558e+00 -2.183325623110079965e-10 1.499999999974610088e+00 4.603357525493830260e-01
-1.518436449235066599e+00 -5.573702108074649747e-02 1.493512791528559980e+00 4.491685120903070039e-01
-1.466076571675236861e+00 -1.119491400019130001e-01 1.480069965052539960e+00 4.380012715356220165e-01
-1.413716694115406902e+00 -1.683771080326620095e-01 1.459756436212169994e+00 4.263287117911599977e-01
-1.361356816555576943e+00 -2.245602154918449889e-01 1.431156571830590085e+00 4.130391308907330195e-01
-1.308996938995747206e+00 -2.795952500578610112e-01 1.393735932390860022e+00 3.984654448506669833e-01
-1.256637061435917246e+00 -3.333629413349730175e-01 1.350320280316199995e+00 3.835105130679919982e-01
-1.204277183876087287e+00 -3.855711073016009904e-01 1.301117366648169904e+00 3.682110912590370044e-01
-1.151917306316257550e+00 -4.348816608726979727e-01 1.244224828984100029e+00 3.513865491781619776e-01
-1.099557428756427591e+00 -4.814954664864289913e-01 1.182094622062479949e+00 3.345620069310850098e-01
-1.047197551196597631e+00 -5.256198868184790429e-01 1.115862422203969917e+00 3.176600188950819970e-01
-9.948376736367678941e-01 -5.669229350821910485e-01 1.045619605317960055e+00 3.006031394179620175e-01
-9.424777960769379348e-01 -6.039759798995849582e-01 9.710382283285360350e-01 2.834758544438050198e-01
-8.901179185171080865e-01 -6.382914142202289476e-01 8.945068156774369506e-01 2.664548436107149754e-01
-8.377580409572782383e-01 -6.689269760415009758e-01 8.161956230641730370e-01 2.495857149638069927e-01
-7.853981633974482790e-01 -6.959915760770609694e-01 7.365997938936890144e-01 2.330121159178940027e-01
-7.330382858376184307e-01 -6.829618989727219702e-01 6.571829937624580342e-01 2.163529798490639866e-01
-6.806784082777884715e-01 -6.685294344137510114e-01 5.785841239820890269e-01 1.885557428247980061e-01
-6.283185307179586232e-01 -6.594666360310119657e-01 5.011802773944610268e-01 1.460602035000549970e-01
-5.759586531581287749e-01 -6.629321254494879856e-01 4.270602286205419928e-01 1.015285487929989960e-01
-5.235987755982988157e-01 -7.850034255976100495e-01 3.184830595958220156e-01 6.814438483724540030e-02
-5.130210225559090897e-01 -8.230694494637480485e-01 2.927706322340949963e-01 6.249027749692250000e-02
-5.024432695135193638e-01 -8.618498624392729734e-01 2.669576431382840176e-01 5.681289499558939832e-02
-4.918655164711295824e-01 -9.012870085994100222e-01 2.410597823578269905e-01 5.110790332132539998e-02
-4.812877634287397455e-01 -9.256771174928519752e-01 2.241483992933210045e-01 4.604508573172900326e-02
-4.707100103863500196e-01 -9.438960413857969689e-01 2.110934691633210014e-01 4.126170146182810139e-02
-4.601322573439602381e-01 -9.609028290395750238e-01 1.983689437321490001e-01 3.646729189090130302e-02
-4.495545043015704567e-01 -9.770130027913890292e-01 1.858366693675509995e-01 3.185701593819519756e-02
-4.389767512591789544e-01 -9.935013433936550342e-01 1.733043950029529989e-01 2.726181573253729992e-02
-4.283989982167891730e-01 -1.016727837678790047e+00 1.604717630994159927e-01 2.269611827795340112e-02
-4.178212451743993916e-01 -1.040058300679000070e+00 1.471823311847409999e-01 1.785492150983659931e-02
-4.072434921320096657e-01 -1.050086405172909965e+00 1.388138251764559905e-01 1.499920573384480073e-02
-3.966657390896198843e-01 -1.060113944102649919e+00 1.304456193430360011e-01 1.214377138013839931e-02
-3.860879860472301028e-01 -1.070141048323919986e+00 1.220776901905780004e-01 9.288567506351180780e-03
-3.755102330048403769e-01 -1.080167811214429952e+00 1.137100166145809943e-01 6.433554765728839893e-03
-3.649324799624505400e-01 -1.090194301194800097e+00 1.053425796037219947e-01 3.578702285494300087e-03
-3.543547269200608141e-01 -1.100220569544219984e+00 9.697536198662179419e-02 7.239855021347770241e-04
-3.437769738776710327e-01 -1.105329766751699916e+00 8.988687455457070041e-02 -1.280133863939810022e-03
-3.331992208352812512e-01 -1.105518584159199902e+00 8.407696504552070182e-02 -2.433660626166930189e-03
-3.226214677928914698e-01 -1.105702899058560007e+00 7.826705876782330540e-02 -3.587057827252489867e-03
-3.120437147505017439e-01 -1.104753329381509941e+00 7.265501461532590521e-02 -4.649193107981210160e-03
-3.014659617081119070e-01 -1.099245029445200084e+00 6.783698796418009824e-02 -5.346760435113539697e-03
-2.908882086657221810e-01 -1.093671516020620071e+00 6.302358593055859548e-02 -6.044196111049489860e-03
-2.803104556233323996e-01 -1.088032550331150095e+00 5.821529741190140106e-02 -6.741480731717160169e-03
-2.697327025809426182e-01 -1.078318025027559912e+00 5.406398637742620278e-02 -7.119459121243410134e-03
-2.591549495385511159e-01 -1.066431540400039957e+00 5.005026140368420279e-02 -7.461920396913660283e-03
-2.485771964961613345e-01 -1.056763619425240108e+00 4.613303503979469811e-02 -7.804345819057960203e-03
-2.379994434537715531e-01 -1.050052684017779958e+00 4.231005413581030022e-02 -8.462974296531250787e-03
-2.274216904113817994e-01 -1.043047135509229895e+00 3.828723813219039873e-02 -9.234488517760179246e-03
-2.168439373689920457e-01 -1.036041587000680053e+00 3.422035416842329758e-02 -9.939842232815160328e-03
-2.062661843266022643e-01 -1.022063905249749993e+00 3.027918656168639838e-02 -1.161290083388910079e-02
-1.956884312842125107e-01 -9.918179108472370276e-01 2.663135715295629827e-02 -1.596928676136650030e-02
-1.851106782418227292e-01 -9.592879861314149714e-01 2.298352774422629877e-02 -2.065762604821120077e-02
-1.745329251994329478e-01 -9.313259220422189788e-01 1.933569833549629927e-02 -2.534596533505590124e-02
-1.639551721570429998e-01 -8.514799400013689512e-01 1.679770451862560091e-02 -3.475112080295390121e-02
-1.533774191146532462e-01 -7.689882440347479697e-01 1.424549254845059940e-02 -4.462077251463719696e-02
-1.427996660722632982e-01 -6.873227074095850098e-01 1.188422381326779964e-02 -5.424018715159480142e-02
-1.322219130298735168e-01 -6.058670075069559902e-01 1.075389689098840001e-02 -5.943721094043240283e-02
-1.216441599874835688e-01 -5.244222346267279899e-01 1.007333438915609947e-02 -6.390057959871289772e-02
-1.110664069450936348e-01 -4.431281084270020099e-01 9.395268377028019938e-03 -6.854247445697420060e-02
-1.004886539027038533e-01 -3.630255232432639811e-01 8.836686879303100664e-03 -7.238462694779919382e-02
-8.991090086031391926e-02 -2.845155191145810059e-01 8.468463606633929580e-03 -7.523473268400070191e-02
-7.933314781792397130e-02 -2.060109750474609924e-01 8.150232533368780008e-03 -7.808483842020229326e-02
-6.875539477553420376e-02 -1.276387925450979954e-01 7.865390701113179547e-03 -8.087144338933090204e-02
-5.817764173314425580e-02 -5.039505588395819941e-02 7.778051703463739752e-03 -8.308654140691429379e-02
-4.759988869075449519e-02 2.684105595982369877e-02 7.691153542139460113e-03 -8.524158730192020472e-02
-3.702213564836454723e-02 1.040633610350869959e-01 7.604711699338770163e-03 -8.719808040600210419e-02
-2.644438260597477622e-02 1.807989915617259913e-01 7.583759663357989879e-03 -8.904533837169240074e-02
-1.586662956358486296e-02 2.573327605754189840e-01 7.584555022080679935e-03 -9.085472177590819820e-02
-5.288876521194919335e-03 3.334637552706030128e-01 7.616175729094719696e-03 -9.258930119720359952e-02
5.288876521194919335e-03 4.096543075249199917e-01 7.666575558447679718e-03 -9.427995374321229693e-02
1.586662956358486296e-02 4.859100096162550231e-01 7.735758398855699901e-03 -9.592469987767099360e-02
2.644438260597477622e-02 5.614253502590650369e-01 7.837637035817629841e-03 -9.749776674102740570e-02
3.702213564836454723e-02 6.364161283332600005e-01 7.954150360967400177e-03 -9.904040671530470186e-02
4.759988869075449519e-02 7.110856943668150132e-01 8.106136527916989534e-03 -1.005084010906549946e-01
5.817764173314425580e-02 7.853404853359160498e-01 8.286115156153569389e-03 -1.019124623317770040e-01
6.875539477553420376e-02 8.592498461821660438e-01 8.489027408820650628e-03 -1.032643145041750032e-01
7.933314781792415171e-02 9.322443510724269800e-01 8.753696051543450110e-03 -1.044967869843009961e-01
8.991090086031391926e-02 1.004801853845650017e+00 9.044750226037319776e-03 -1.056800140084149936e-01
1.004886539027038533e-01 1.076360483308000049e+00 9.395115960630090121e-03 -1.067537869545199941e-01
1.110664069450938152e-01 1.146729654519450081e+00 9.824697788521810637e-03 -1.076931473344750062e-01
1.216441599874835688e-01 1.216301333345600089e+00 1.030661874993469944e-02 -1.085431115706009947e-01
1.322219130298733503e-01 1.284022039133400073e+00 1.087994449323769972e-02 -1.091817272745689987e-01
1.427996660722632982e-01 1.350689056625270057e+00 1.151121434011509979e-02 -1.097054834148180058e-01
1.533774191146532462e-01 1.415100556307840041e+00 1.225527536213119953e-02 -1.099877584398969987e-01
1.639551721570429998e-01 1.477881658270320031e+00 1.303735476849010068e-02 -1.100849865397629940e-01
1.745329251994329478e-01 1.539784361404560098e+00 1.384007615807529915e-02 -1.100829411361580051e-01
1.851106782418227292e-01 1.597792391439760040e+00 1.476773174746319993e-02 -1.096861603472719937e-01
1.956884312842125107e-01 1.654083573295410003e+00 1.576091170140119999e-02 -1.091373205806040053e-01
2.062661843266022643e-01 1.707185491382199993e+00 1.687148666212080067e-02 -1.083052253020290040e-01
2.168439373689920457e-01 1.754941911930290033e+00 1.824792852906019849e-02 -1.071001566097690011e-01
2.274216904113817994e-01 1.799840509851230008e+00 1.971727492005560106e-02 -1.057139261341750042e-01
2.379994434537715531e-01 1.833875760398880006e+00 2.176850521409279954e-02 -1.039057359498029992e-01
2.485771964961613345e-01 1.862670216726900030e+00 2.427165767717109901e-02 -1.020657077479600050e-01
2.591549495385511159e-01 1.885924116100170078e+00 2.743283910963460054e-02 -1.002004087409770067e-01
2.697327025809426182e-01 1.884335383982719936e+00 3.215156839088009755e-02 -9.826078520902839508e-02
2.803104556233323996e-01 1.872407341363109934e+00 3.776885508281910275e-02 -9.639168765741190636e-02
2.908882086657221810e-01 1.825517399103059990e+00 4.680051330702270085e-02 -9.549104019295939771e-02
3.014659617081119070e-01 1.778627456843020038e+00 5.583217153122640303e-02 -9.463992797558229420e-02
3.120437147505017439e-01 1.731737514582970094e+00 6.486382975542989704e-02 -9.385191032988489390e-02
3.226214677928914698e-01 1.676952094691499973e+00 7.599106322001029923e-02 -9.506773835377779758e-02
3.331992208352812512e-01 1.620192805810839909e+00 8.764219038356299563e-02 -9.675247787509000386e-02
3.437769738776710327e-01 1.563433516930180067e+00 9.929331754711570590e-02 -9.844772055020829804e-02
3.543547269200608141e-01 1.517195493962449904e+00 1.115478394140120011e-01 -1.010080661677719982e-01
3.649324799624505400e-01 1.481478735320689966e+00 1.244879758317219975e-01 -1.044577164695759952e-01
3.755102330048403769e-01 1.445761976678930028e+00 1.375704975121609941e-01 -1.080054162261109979e-01
3.860879860472301028e-01 1.410045218037170089e+00 1.504296617284469895e-01 -1.116499465104709987e-01
3.966657390896198843e-01 1.374090088436850099e+00 1.624831840338230027e-01 -1.153201463863010034e-01
4.072434921320096657e-01 1.337269915280550059e+00 1.748129267633090067e-01 -1.190122837489250018e-01
4.178212451743993916e-01 1.300449742124250019e+00 1.874147257289019985e-01 -1.227233165334830067e-01
4.283989982167891730e-01 1.270956898130989998e+00 2.017408339891859914e-01 -1.270612808346489875e-01
4.389767512591789544e-01 1.243519166246340069e+00 2.163347939474140058e-01 -1.314753512369550015e-01
4.495545043015704567e-01 1.219721219847970106e+00 2.310609952953069923e-01 -1.358983867172960103e-01
4.601322573439602381e-01 1.195613260549680090e+00 2.460087215881379963e-01 -1.403317214384580125e-01
4.707100103863500196e-01 1.172386964998680003e+00 2.605301275300559993e-01 -1.447769681102920036e-01
4.812877634287397455e-01 1.149610725859079974e+00 2.749278821266010198e-01 -1.492360946868949989e-01
4.918655164711295824e-01 1.127374482595909999e+00 2.901869641126930133e-01 -1.537899839526080115e-01
5.024432695135193638e-01 1.102015045530450044e+00 3.074558104072599996e-01 -1.585332084563819965e-01
5.130210225559090897e-01 1.078715639758210054e+00 3.248859285786789841e-01 -1.632764505446120118e-01
5.235987755982988157e-01 1.056788017734479945e+00 3.433589519773629917e-01 -1.680197223609830037e-01
5.759586531581287749e-01 9.836741010025600307e-01 4.270602286205419928e-01 -1.902633554872759925e-01
6.283185307179586232e-01 9.811034291551089526e-01 5.011802773944610268e-01 -2.098195207629960091e-01
6.806784082777884715e-01 9.871849063053580453e-01 5.785841239820900261e-01 -2.291462734132299894e-01
7.330382858376184307e-01 9.917312842467459477e-01 6.571829937624590334e-01 -2.466843307169820088e-01
7.853981633974482790e-01 9.942736801100869881e-01 7.365997938936890144e-01 -2.628890966505719740e-01
8.377580409572782383e-01 9.556099657735730446e-01 8.161956230641740362e-01 -2.790258231034469794e-01
8.901179185171080865e-01 9.118448774574700044e-01 8.945068156774379498e-01 -2.944490957788170049e-01
9.424777960769379348e-01 8.628228284279789717e-01 9.710382283285360350e-01 -3.095177659855540275e-01
9.948376736367678941e-01 8.098899072602729898e-01 1.045619605317960055e+00 -3.243188981893729839e-01
1.047197551196597631e+00 7.508855525978269663e-01 1.115862422203969917e+00 -3.388960520796829856e-01
1.099557428756427591e+00 6.878506664091850187e-01 1.182094622062479949e+00 -3.529804542397559919e-01
1.151917306316257550e+00 6.212595155324259766e-01 1.244224828984100029e+00 -3.668184804740289850e-01
1.204277183876087287e+00 5.508158675737150345e-01 1.301117366648169904e+00 -3.806565065716019935e-01
1.256637061435917246e+00 4.762327733356759851e-01 1.350320280316199995e+00 -3.933580803478620158e-01
1.308996938995747206e+00 3.994217857969449836e-01 1.393735932390860022e+00 -4.058029553478910145e-01
1.361356816555576943e+00 3.208003078454920165e-01 1.431156571830590085e+00 -4.179978661403869755e-01
1.413716694115406902e+00 2.405387257609460094e-01 1.459756436212169994e+00 -4.294406582827460239e-01
1.466076571675236861e+00 1.599273428598750046e-01 1.480069965052539960e+00 -4.399363381661339778e-01
1.518436449235066599e+00 7.962431582963759580e-02 1.493512791528559980e+00 -4.501360454033159764e-01
1.570796326794896558e+00 3.119035273573460092e-10 1.499999999974610088e+00 -4.603357525531729944e-01
1.623156204354726517e+00 -5.573702141492539730e-02 1.493512791489630009e+00 -4.652362574868559864e-01
1.675516081914556477e+00 -1.119491401546320042e-01 1.480069965004650046e+00 -4.701367623578249777e-01
1.727875959474386214e+00 -1.683771075925029892e-01 1.459756436436179916e+00 -4.743628104747860119e-01
1.780235837034216173e+00 -2.245602150516849971e-01 1.431156572054709919e+00 -4.764305970524860268e-01
1.832595714594046132e+00 -2.795952502783289884e-01 1.393735932234509978e+00 -4.767844700748720133e-01
1.884955592153875870e+00 -3.333629415809880037e-01 1.350320280089819969e+00 -4.765502999422969732e-01
1.937315469713705829e+00 -3.855711069802330027e-01 1.301117367018890025e+00 -4.756932046237780098e-01
1.989675347273535788e+00 -4.348816612332960241e-01 1.244224828567989993e+00 -4.720783044776100112e-01
2.042035224833365525e+00 -4.814954665495240205e-01 1.182094621973480031e+00 -4.684497596813850251e-01
2.094395102393195263e+00 -5.256198866853030172e-01 1.115862422430409895e+00 -4.644320837656790157e-01
2.146754979953025444e+00 -5.669229355202369813e-01 1.045619604572850081e+00 -4.597921527748140003e-01
2.199114857512855181e+00 -6.039759798293220516e-01 9.710382284712210099e-01 -4.548693786469690248e-01
2.251474735072684918e+00 -6.382914139662270170e-01 8.945068162871520068e-01 -4.504603143283399946e-01
2.303834612632515100e+00 -6.689269759017789641e-01 8.161956234779470520e-01 -4.467814452054120200e-01
2.356194490192344837e+00 -6.959915763118540433e-01 7.365997932065500020e-01 -4.445233776027580075e-01
2.408554367752174574e+00 -7.204618989743589719e-01 6.571829937570210500e-01 -4.422653100253849945e-01
2.460914245312004756e+00 -7.435294343719119903e-01 5.785841241299549687e-01 -4.399473654135189760e-01
2.513274122871834493e+00 -7.655224006438640094e-01 5.011802766089079597e-01 -4.388686285328720071e-01
2.565634000431664230e+00 -7.877483370759019721e-01 4.270602288597120100e-01 -4.380964178464599734e-01
2.617993877991494411e+00 -7.454724738100290127e-01 3.553434510324319784e-01 -4.355616950535439735e-01
2.670353755551324149e+00 -6.709252263450540266e-01 2.882305159751920032e-01 -4.146116671746529758e-01
2.722713633111153886e+00 -5.963779788800800397e-01 2.259996107293059942e-01 -3.918198262718409763e-01
2.775073510670984067e+00 -5.218307314151050536e-01 1.689091379681209870e-01 -3.690303428897440119e-01
2.827433388230813804e+00 -4.472834839501310111e-01 1.179861692716299981e-01 -3.891474996694649913e-01
2.879793265790643542e+00 -3.727362364851570242e-01 7.467610225417380121e-02 -4.307171874096339947e-01
