# Angle of attack [rad] 	 Lift coefficient [-] 	 Drag coefficient [-] 	 Moment coefficient [-]
-3.141592653589793116e+00 0.000000000000000000e+00 1.473171054983119996e-02 0.000000000000000000e+00
-3.089232776029963379e+00 8.091806657434459649e-02 1.601889312209180127e-02 1.200000003610469934e-01
-3.036872898470133197e+00 1.618361319352140115e-01 1.945275892536259960e-02 2.399999989225340136e-01
-2.984513020910303460e+00 2.427546431535269889e-01 2.500137280426700109e-02 3.600006586823850108e-01
-2.932153143350473723e+00 3.236763756232809985e-01 3.825977755826410337e-02 3.977377109609540051e-01
-2.879793265790643542e+00 4.045903312052550049e-01 7.227003778780730081e-02 3.943447083190099733e-01
-2.827433388230813804e+00 4.855128157701549818e-01 1.126334657818670038e-01 3.909513480272480135e-01
-2.775073510670984067e+00 5.664220043767640433e-01 1.596190644319769869e-01 3.961931827951399865e-01
-2.722713633111153886e+00 6.473466432376949742e-01 2.125212246191529875e-01 4.187100777811930130e-01
-2.670353755551324149e+00 7.282634623663230000e-01 2.703787672373019757e-01 4.412248860385210025e-01
-2.617993877991494411e+00 8.091806633219880140e-01 3.329482155790770004e-01 4.614102412297930167e-01
-2.565634000431664230e+00 8.508530844516769553e-01 3.999598364609289747e-01 4.583012037564679897e-01
-2.513274122871834493e+00 8.140326672224410531e-01 4.693413533445789931e-01 4.528794383439370130e-01
-2.460914245312004756e+00 7.801393829855779449e-01 5.419019054465760155e-01 4.476525477083180271e-01
-2.408554367752174574e+00 7.465495472364890306e-01 6.156706256821800061e-01 4.441846728631029806e-01
-2.356194490192344837e+00 7.128246036146820286e-01 6.902805308797920203e-01 4.427985975859359824e-01
-2.303834612632515100e+00 6.776809266063750226e-01 7.651223202331800533e-01 4.413243795390749957e-01
-2.251474735072684918e+00 6.403843260198579523e-01 8.389419544781140381e-01 4.420901646322630274e-01
-2.199114857512855181e+00 6.017259297201670298e-01 9.113286621671210508e-01 4.440120046636110152e-01
-2.146754979953025444e+00 5.610478131051409578e-01 9.819225371396870239e-01 4.467684945912269723e-01
-2.094395102393195263e+00 5.172120901148460348e-01 1.048470732533790084e+00 4.494713414526960160e-01
-2.042035224833365525e+00 4.712521792223420269e-01 1.111272691651679967e+00 4.520579763027289810e-01
-1.989675347273535788e+00 4.234249400445719846e-01 1.170237529242819985e+00 4.545865415281030164e-01
-1.937315469713705829e+00 3.735827270573349734e-01 1.224291919910160065e+00 4.571149088477500233e-01
-1.884955592153875870e+00 3.216917372202729997e-01 1.271121386157550104e+00 4.573720746720699726e-01
-1.832595714594046132e+00 2.687741350104729809e-01 1.312514103191529946e+00 4.571161890106150150e-01
-1.780235837034216173e+00 2.150189687894560053e-01 1.348272173192059942e+00 4.563527884506500265e-01
-1.727875959474386214e+00 1.606613971640900029e-01 1.375729345064180098e+00 4.540387096219479779e-01
-1.675516081914556477e+00 1.064885682728139993e-01 1.395386440579239995e+00 4.497719557550100000e-01
-1.623156204354726517e+00 5.285391759324860328e-02 1.408576916167060045e+00 4.448949735359349900e-01
-1.570796326794896558e+00 -2.070389026545980011e-10 1.415219962015499933e+00 4.400179617259240006e-01
-1.518436449235066599e+00 -5.285391727635550124e-02 1.408576916206889962e+00 4.294093763370909755e-01
-1.466076571675236861e+00 -1.064885681265529960e-01 1.395386440625780100e+00 4.188007770426950271e-01
-1.413716694115406902e+00 -1.606613975899479907e-01 1.375729344849069946e+00 4.077341078359930093e-01
-1.361356816555576943e+00 -2.150189692153129939e-01 1.348272172976960004e+00 3.952016506337019952e-01
-1.308996938995747206e+00 -2.687741347947860127e-01 1.312514103340840066e+00 3.815051862504110214e-01
-1.256637061435917246e+00 -3.216917369764920043e-01 1.271121386373089912e+00 3.674746446393349908e-01
-1.204277183876087287e+00 -3.735827273821710204e-01 1.224291919557870090e+00 3.531555545459370005e-01
-1.151917306316257550e+00 -4.234249396800889853e-01 1.170237529638100016e+00 3.375590507958389774e-01
-1.099557428756427591e+00 -4.712521791571879781e-01 1.111272691736099993e+00 3.219625436179370248e-01
-1.047197551196597631e+00 -5.172120902561979650e-01 1.048470732319209953e+00 3.063423791333699797e-01
-9.948376736367678941e-01 -5.610478126402710375e-01 9.819225378454580211e-01 2.906749071060439893e-01
-9.424777960769379348e-01 -6.017259297974210108e-01 9.113286620320999454e-01 2.749859320347269875e-01
-8.901179185171080865e-01 -6.403843263111229644e-01 8.389419539016590432e-01 2.593937304332170068e-01
-8.377580409572782383e-01 -6.776809267916490409e-01 7.651223198439820461e-01 2.439368845681059994e-01
-7.853981633974482790e-01 -7.128246033136269588e-01 6.902805315256469454e-01 2.287434061104469951e-01
-7.330382858376184307e-01 -7.210902892403689979e-01 6.156706256872860328e-01 2.135499063528880082e-01
-6.806784082777884715e-01 -7.341442898729789723e-01 5.419019053078749648e-01 1.848064407909459916e-01
-6.283185307179586232e-01 -7.524303089745859596e-01 4.693413540804730055e-01 1.378319701804379960e-01
-5.759586531581287749e-01 -7.786365245151239955e-01 3.999598362372360216e-01 8.862826097975250172e-02
-5.235987755982988157e-01 -9.049632817360639958e-01 2.979156058122020001e-01 5.822148832317219913e-02
-5.130210225559090897e-01 -9.407540639885140221e-01 2.740312506458250086e-01 5.397978051100769947e-02
-5.024432695135193638e-01 -9.768099453865719539e-01 2.501541841692699886e-01 4.973824179288219988e-02
-4.918655164711295824e-01 -1.013163932342679985e+00 2.262741649841999991e-01 4.549465765031129871e-02
-4.812877634287397455e-01 -1.022582186261649984e+00 2.128055446830819930e-01 4.181433395039570178e-02
-4.707100103863500196e-01 -1.021041390941729965e+00 2.037230357295010119e-01 3.836242021288539805e-02
-4.601322573439602381e-01 -1.020089489220290080e+00 1.946130849330839907e-01 3.487073298813109928e-02
-4.495545043015704567e-01 -1.018854675642679952e+00 1.855811166857780081e-01 3.144167154921560098e-02
-4.389767512591789544e-01 -1.017801275613920087e+00 1.765491484384729970e-01 2.802078019315660043e-02
-4.283989982167891730e-01 -1.018088679506959915e+00 1.675585566425590034e-01 2.459988883709770049e-02
-4.178212451743993916e-01 -1.018882293100680014e+00 1.587534601291200054e-01 2.129876378969109904e-02
-4.072434921320096657e-01 -1.019994421544200058e+00 1.508047853509469904e-01 1.865190178132329971e-02
-3.966657390896198843e-01 -1.021106609591190040e+00 1.428560780034690003e-01 1.600500923832559944e-02
-3.860879860472301028e-01 -1.022218843451089931e+00 1.349073406358000105e-01 1.335809168800109956e-02
-3.755102330048403769e-01 -1.023331113283020066e+00 1.269585755378019876e-01 1.071115339951640016e-02
-3.649324799624505400e-01 -1.024443411876309940e+00 1.190097847722240004e-01 8.064197722601879753e-03
-3.543547269200608141e-01 -1.025555733826770011e+00 1.110609702021800038e-01 5.417227322426009656e-03
-3.437769738776710327e-01 -1.025210724745559965e+00 1.039797293894939995e-01 3.403591676063399789e-03
-3.331992208352812512e-01 -1.023408733026389905e+00 9.776607900655269467e-02 1.994405064749869838e-03
-3.226214677928914698e-01 -1.021607215815919956e+00 9.155242827300620612e-02 5.795988601408630109e-04
-3.120437147505017439e-01 -1.019464765526699956e+00 8.546843095775390198e-02 -7.384533437907630279e-04
-3.014659617081119070e-01 -1.015961026677099976e+00 7.990276870448649593e-02 -1.678764419470680103e-03
-2.908882086657221810e-01 -1.012464160523040002e+00 7.433660467509090042e-02 -2.609886203757970195e-03
-2.803104556233323996e-01 -1.008974192228619948e+00 6.876988582365259339e-02 -3.532943538435179883e-03
-2.697327025809426182e-01 -1.024452730850279991e+00 6.252467627264469974e-02 -3.505990266063240077e-03
-2.591549495385511159e-01 -1.042220055972749915e+00 5.619707091288070333e-02 -3.372418711215709880e-03
-2.485771964961613345e-01 -1.057618757472519988e+00 4.985899534696779795e-02 -3.237563925460589832e-03
-2.379994434537715531e-01 -1.067216951088429955e+00 4.431565778060359700e-02 -3.638061764408079962e-03
-2.274216904113817994e-01 -1.073622814375609913e+00 3.937853379354989969e-02 -4.406587348125810301e-03
-2.168439373689920457e-01 -1.080731652871870008e+00 3.442823296721359699e-02 -5.182282312145690233e-03
-2.062661843266022643e-01 -1.071669958777540010e+00 2.995417197916050087e-02 -7.880906329498480606e-03
-1.956884312842125107e-01 -1.023065585603140093e+00 2.659133740015509964e-02 -1.491222000292810081e-02
-1.851106782418227292e-01 -9.746850532243469534e-01 2.322850282114969842e-02 -2.202836787501440130e-02
-1.745329251994329478e-01 -9.268180152013839601e-01 1.986566824214430066e-02 -2.914451574710070006e-02
-1.639551721570429998e-01 -8.561018028139050218e-01 1.808691944449939901e-02 -3.504554563435890308e-02
-1.533774191146532462e-01 -7.865376209362570092e-01 1.628543101684129871e-02 -4.116419597789890139e-02
-1.427996660722632982e-01 -7.169472145451679657e-01 1.450265412702990073e-02 -4.733479864431040102e-02
-1.322219130298735168e-01 -6.405916518941630056e-01 1.337592828044320038e-02 -5.273779930927820214e-02
-1.216441599874835688e-01 -5.605772279218910192e-01 1.253133647519799956e-02 -5.778387246293820168e-02
-1.110664069450936348e-01 -4.807945130749329832e-01 1.168663436680449953e-02 -6.281264480114449877e-02
-1.004886539027038533e-01 -3.998927342935880147e-01 1.103650596828850000e-02 -6.749309991669659448e-02
-8.991090086031391926e-02 -3.171819269262530216e-01 1.067722684076709977e-02 -7.165259440984210471e-02
-7.933314781792397130e-02 -2.344788211019800117e-01 1.031643740731899919e-02 -7.580865760812380283e-02
-6.875539477553420376e-02 -1.519369572591839912e-01 9.976361551307400335e-03 -7.986511955689899744e-02
-5.817764173314425580e-02 -7.076099421975200199e-02 9.833875806108460099e-03 -8.309022853682600240e-02
-4.759988869075449519e-02 1.040095716294179955e-02 9.691350137727200789e-03 -8.632236292139479350e-02
-3.702213564836454723e-02 9.152344025705309860e-02 9.548783975995010428e-03 -8.961700664063709798e-02
-2.644438260597477622e-02 1.716656158944669941e-01 9.484000888125090206e-03 -9.247612007986509564e-02
-1.586662956358486296e-02 2.519326972659859942e-01 9.446648381743040154e-03 -9.521012647785130623e-02
-5.288876521194919335e-03 3.315798974456160009e-01 9.454506378480149673e-03 -9.774981953987260663e-02
5.288876521194919335e-03 4.105437083277970189e-01 9.485968615709560597e-03 -1.001925060049970034e-01
1.586662956358486296e-02 4.890773424837089878e-01 9.541033625838399312e-03 -1.025380044390299950e-01
2.644438260597477622e-02 5.670608271669219658e-01 9.635652869305949900e-03 -1.047332525176119938e-01
3.702213564836454723e-02 6.448189112398869938e-01 9.745545422904480087e-03 -1.068698448415539987e-01
4.759988869075449519e-02 7.220055115503739573e-01 9.888598113792820832e-03 -1.088781688689160060e-01
5.817764173314425580e-02 7.987618054784999533e-01 1.005236830706750066e-02 -1.108028703620940053e-01
6.875539477553420376e-02 8.751665459992260532e-01 1.023309237248819920e-02 -1.126591400300710061e-01
7.933314781792415171e-02 9.507147723355580116e-01 1.045659911898040063e-02 -1.143648914453269938e-01
8.991090086031391926e-02 1.025754129772850076e+00 1.071510369220140049e-02 -1.159983452497270057e-01
1.004886539027038533e-01 1.099544876709450003e+00 1.106440764488120058e-02 -1.174652414905869996e-01
1.110664069450938152e-01 1.172708138152930069e+00 1.141963736143019985e-02 -1.188270785879090019e-01
1.216441599874835688e-01 1.245456466428320086e+00 1.177881935283269996e-02 -1.201188707003510020e-01
1.322219130298733503e-01 1.316668178090750096e+00 1.219958525807279988e-02 -1.211957246658919990e-01
1.427996660722632982e-01 1.387043774609830082e+00 1.265867986260300025e-02 -1.221666959684690051e-01
1.533774191146532462e-01 1.455659399316610036e+00 1.320136120874689997e-02 -1.229169827177740010e-01
1.639551721570429998e-01 1.522210336794580066e+00 1.382420653539460052e-02 -1.234118999211789997e-01
1.745329251994329478e-01 1.587650209475260032e+00 1.449031009797640060e-02 -1.237693015301670058e-01
1.851106782418227292e-01 1.648635476272199973e+00 1.532650711976200029e-02 -1.236036915913600043e-01
1.956884312842125107e-01 1.707384422043010108e+00 1.625130624228189949e-02 -1.232010612219059942e-01
2.062661843266022643e-01 1.761976253421019933e+00 1.733984708965890034e-02 -1.223583822664010001e-01
2.168439373689920457e-01 1.809685101734209933e+00 1.874629230112000167e-02 -1.209164726959429947e-01
2.274216904113817994e-01 1.853931685229839976e+00 2.032072106913020149e-02 -1.191925442438139943e-01
2.379994434537715531e-01 1.888272695374449972e+00 2.241883824158229926e-02 -1.169631381336150022e-01
2.485771964961613345e-01 1.904507732657009900e+00 2.566535703633539972e-02 -1.137692070468279970e-01
2.591549495385511159e-01 1.895120244544570065e+00 3.083312435608169880e-02 -1.092006818198559964e-01
2.697327025809426182e-01 1.879230202017150075e+00 3.672516820517920250e-02 -1.062601861674900006e-01
2.803104556233323996e-01 1.858487033581819992e+00 4.327103277470709802e-02 -1.040062973501480054e-01
2.908882086657221810e-01 1.804348931219339924e+00 5.353556683712969860e-02 -1.032363957861369974e-01
3.014659617081119070e-01 1.750210828856860079e+00 6.380010089955240327e-02 -1.024687543849379934e-01
3.120437147505017439e-01 1.696072726494380012e+00 7.406463496197500385e-02 -1.017025040218160065e-01
3.226214677928914698e-01 1.639156572997209960e+00 8.636199574790209832e-02 -1.032900462032410038e-01
3.331992208352812512e-01 1.581545906863679907e+00 9.916756310691060561e-02 -1.054973352622560062e-01
3.437769738776710327e-01 1.523935240730160068e+00 1.119731304659190019e-01 -1.077483721731429950e-01
3.543547269200608141e-01 1.479704610337950088e+00 1.246611572753759944e-01 -1.107626614808469995e-01
3.649324799624505400e-01 1.448854013668920082e+00 1.372316435530079870e-01 -1.144967013477369983e-01
3.755102330048403769e-01 1.418003416999890076e+00 1.498021298306410065e-01 -1.182274978540509974e-01
3.860879860472301028e-01 1.387152820330860070e+00 1.623862752311250046e-01 -1.219557793380289940e-01
3.966657390896198843e-01 1.356302223661840056e+00 1.750140259123560138e-01 -1.256821653536260019e-01
4.072434921320096657e-01 1.325451626992810050e+00 1.876247475118950070e-01 -1.294072030697870079e-01
4.178212451743993916e-01 1.294601030323780044e+00 2.002230228236930032e-01 -1.331313968084520127e-01
4.283989982167891730e-01 1.282894762839229985e+00 2.122180488835760104e-01 -1.367353247258389914e-01
4.389767512591789544e-01 1.273989204033419975e+00 2.241377727847750079e-01 -1.403294053075679892e-01
4.495545043015704567e-01 1.267249926624850032e+00 2.360431483485899984e-01 -1.439278630411920112e-01
4.601322573439602381e-01 1.260124704650940064e+00 2.479244882102930037e-01 -1.475316318486739886e-01
4.707100103863500196e-01 1.251590288931470063e+00 2.601747774068889907e-01 -1.511419263118330136e-01
4.812877634287397455e-01 1.244782160946900085e+00 2.723100212473760218e-01 -1.547603540447410053e-01
4.918655164711295824e-01 1.236444990404210076e+00 2.851185750044549772e-01 -1.585252985858839891e-01
5.024432695135193638e-01 1.222091964938589959e+00 2.997363826464770065e-01 -1.626122132134679987e-01
5.130210225559090897e-01 1.207882301377869894e+00 3.143067546666160061e-01 -1.666991388564370014e-01
5.235987755982988157e-01 1.193857456254810101e+00 3.288204424570910223e-01 -1.707860841005990060e-01
5.759586531581287749e-01 1.134543284196390056e+00 3.999598362372360216e-01 -1.905202435601260069e-01
6.283185307179586232e-01 1.094475335197780064e+00 4.693413540804730055e-01 -2.092783615513020001e-01
6.806784082777884715e-01 1.063774719352789999e+00 5.419019053078759640e-01 -2.277642451082750041e-01
7.330382858376184307e-01 1.038601182418650071e+00 6.156706256872870320e-01 -2.440155079953769957e-01
7.853981633974482790e-01 1.018320861876609973e+00 6.902805315256469454e-01 -2.586009572864820250e-01
8.377580409572782383e-01 9.681156097023549956e-01 7.651223198439820461e-01 -2.731863382254650086e-01
8.901179185171080865e-01 9.148347518730329808e-01 8.389419539016600424e-01 -2.870906038121279757e-01
9.424777960769379348e-01 8.596084711391730471e-01 9.113286620320999454e-01 -3.006448267526530271e-01
9.948376736367678941e-01 8.014968752003870378e-01 9.819225378454580211e-01 -3.139384403152000180e-01
1.047197551196597631e+00 7.388744146517099987e-01 1.048470732319209953e+00 -3.270806635111320193e-01
1.099557428756427591e+00 6.732173987959829686e-01 1.111272691736099993e+00 -3.398898327362380178e-01
1.151917306316257550e+00 6.048927709715550272e-01 1.170237529638100016e+00 -3.525324735556080169e-01
1.204277183876087287e+00 5.336896105459579820e-01 1.224291919557870090e+00 -3.651751127891200155e-01
1.256637061435917246e+00 4.595596242521319819e-01 1.271121386373089912e+00 -3.769643841910410020e-01
1.308996938995747206e+00 3.839630497068369785e-01 1.312514103340840066e+00 -3.885608906950239749e-01
1.361356816555576943e+00 3.071699560218750236e-01 1.348272172976960004e+00 -3.999563942762370261e-01
1.413716694115406902e+00 2.295162822713540107e-01 1.375729344849069946e+00 -4.107073534779789870e-01
1.466076571675236861e+00 1.521265258950749988e-01 1.395386440625780100e+00 -4.206466622542680001e-01
1.518436449235066599e+00 7.550559610907900399e-02 1.408576916206889962e+00 -4.303323189950080119e-01
1.570796326794896558e+00 2.957697098923209922e-10 1.415219962015499933e+00 -4.400179617295389978e-01
1.623156204354726517e+00 -5.285391759324840205e-02 1.408576916167060045e+00 -4.448949735359349900e-01
1.675516081914556477e+00 -1.064885682728139993e-01 1.395386440579239995e+00 -4.497719557550100000e-01
1.727875959474386214e+00 -1.606613971640900029e-01 1.375729345064180098e+00 -4.540387096219479779e-01
1.780235837034216173e+00 -2.150189687894550061e-01 1.348272173192059942e+00 -4.563527884506500265e-01
1.832595714594046132e+00 -2.687741350104739801e-01 1.312514103191529946e+00 -4.571161890106150150e-01
1.884955592153875870e+00 -3.216917372202729997e-01 1.271121386157550104e+00 -4.573720746720699726e-01
1.937315469713705829e+00 -3.735827270573359726e-01 1.224291919910160065e+00 -4.571149088477500233e-01
1.989675347273535788e+00 -4.234249400445719846e-01 1.170237529242819985e+00 -4.545865415281030164e-01
2.042035224833365525e+00 -4.712521792223420269e-01 1.111272691651679967e+00 -4.520579763027289810e-01
2.094395102393195263e+00 -5.172120901148460348e-01 1.048470732533790084e+00 -4.494713414526960160e-01
2.146754979953025444e+00 -5.610478131051419570e-01 9.819225371396870239e-01 -4.467684945912269723e-01
2.199114857512855181e+00 -6.017259297201670298e-01 9.113286621671210508e-01 -4.440120046636110152e-01
2.251474735072684918e+00 -6.403843260198579523e-01 8.389419544781140381e-01 -4.420901646322630274e-01
2.303834612632515100e+00 -6.776809266063760218e-01 7.651223202331800533e-01 -4.413243795390749957e-01
2.356194490192344837e+00 -7.128246036146820286e-01 6.902805308797920203e-01 -4.427985975859359824e-01
2.408554367752174574e+00 -7.465495472364890306e-01 6.156706256821800061e-01 -4.441846728631029806e-01
2.460914245312004756e+00 -7.801393829855790552e-01 5.419019054465750163e-01 -4.476525477083180271e-01
2.513274122871834493e+00 -8.140326672224410531e-01 4.693413533445789931e-01 -4.528794383439370130e-01
2.565634000431664230e+00 -8.508530844516779545e-01 3.999598364609289747e-01 -4.583012037564679897e-01
2.617993877991494411e+00 -8.091806633219880140e-01 3.329482155790760012e-01 -4.614102412297930167e-01
2.670353755551324149e+00 -7.282625968986410347e-01 2.703781327613690166e-01 -4.412246452247279849e-01
2.722713633111153886e+00 -6.473445304752940554e-01 2.125197758687739913e-01 -4.187094899140910154e-01
2.775073510670984067e+00 -5.664264640519479643e-01 1.596218918061400038e-01 -3.961944236765679861e-01
2.827433388230813804e+00 -4.855083976286019842e-01 1.126311713711219964e-01 -4.109515334274850273e-01
2.879793265790643542e+00 -4.045903312052550049e-01 7.227003778780749510e-02 -4.443447084855369766e-01
