# Angle of attack [rad] 	 Lift coefficient [-] 	 Drag coefficient [-] 	 Moment coefficient [-]
-3.141592653589793116e+00 1.701452955380270120e-05 1.705114083511619916e-01 -1.701452955380270120e-05
-3.089232776029963379e+00 1.187237235956490056e-01 1.697280437375179862e-01 5.642212657260579911e-02
-3.036872898470133197e+00 2.390660722102249947e-01 1.676024382411210045e-01 1.142817497848000047e-01
-2.984513020910303460e+00 3.594082876846380059e-01 1.640509621291099951e-01 1.721438065050910071e-01
-2.932153143350473723e+00 4.794021429708960058e-01 1.714467332272059941e-01 1.812973764528580112e-01
-2.879793265790643542e+00 5.992246254793920368e-01 1.753636302682050063e-01 1.667703167415389987e-01
-2.827433388230813804e+00 7.190445610971819557e-01 1.643405070321790062e-01 1.529478344544289992e-01
-2.775073510670984067e+00 7.999586663463540415e-01 1.754973912335449915e-01 1.385069212278290107e-01
-2.722713633111153886e+00 8.030699330637089961e-01 2.171266462881319970e-01 1.230099949026989964e-01
-2.670353755551324149e+00 8.061835348781889454e-01 2.575969622556409933e-01 1.164701847383910055e-01
-2.617993877991494411e+00 8.092970226730099581e-01 2.969659429584159960e-01 1.109590472989859938e-01
-2.565634000431664230e+00 6.840995809863530397e-01 3.513297698841740258e-01 1.018143560336309955e-01
-2.513274122871834493e+00 6.432675404429190058e-01 3.871486246816709942e-01 9.311971453819470335e-02
-2.460914245312004756e+00 5.958519058489859521e-01 4.315163330337359882e-01 8.458199397874620329e-02
-2.408554367752174574e+00 5.583759402912179537e-01 4.803488559444979988e-01 8.090095956016879475e-02
-2.356194490192344837e+00 5.252243431259939754e-01 5.314143166739230262e-01 7.953179156077100354e-02
-2.303834612632515100e+00 4.909233953664560168e-01 5.826311511174699920e-01 7.816268022136020621e-02
-2.251474735072684918e+00 4.565334960464039749e-01 6.330602652950489961e-01 7.757923656886249464e-02
-2.199114857512855181e+00 4.224035042492649827e-01 6.811914418895319567e-01 7.891124519829259554e-02
-2.146754979953025444e+00 3.886939854683230111e-01 7.307587393467579462e-01 8.017013463857210198e-02
-2.094395102393195263e+00 3.559578542781219879e-01 7.836443504305770080e-01 8.141600789282610329e-02
-2.042035224833365525e+00 3.195642147346720030e-01 8.220206204494020508e-01 8.346793821789000312e-02
-1.989675347273535788e+00 2.838058744788520271e-01 8.635062496003419463e-01 8.551316402559250296e-02
-1.937315469713705829e+00 2.487164506316330015e-01 9.090885215148799547e-01 8.757999387459350360e-02
-1.884955592153875870e+00 2.128327121114730047e-01 9.420248996412660114e-01 8.928144188477679655e-02
-1.832595714594046132e+00 1.763914838583789946e-01 9.701203821450660181e-01 9.077949826817209578e-02
-1.780235837034216173e+00 1.399256196405860020e-01 1.003025482040029948e+00 9.232371803182340408e-02
-1.727875959474386214e+00 1.044061708678439976e-01 1.031359907744870075e+00 9.336474987764900590e-02
-1.675516081914556477e+00 7.075565547919179799e-02 1.042655468783999950e+00 9.328912541087759636e-02
-1.623156204354726517e+00 3.604983895598189853e-02 1.059663201569390090e+00 9.326209125944159850e-02
-1.570796326794896558e+00 1.346412636397999975e-05 1.082755945187279911e+00 9.324044293667570205e-02
-1.518436449235066599e+00 -3.602162150351100045e-02 1.059660851884139943e+00 8.984074910831869876e-02
-1.466076571675236861e+00 -7.072213511559180543e-02 1.042654747992789899e+00 8.645265445702890461e-02
-1.413716694115406902e+00 -1.043675748334570025e-01 1.031360794873799946e+00 8.310901181544380623e-02
-1.361356816555576943e+00 -1.398852071657140095e-01 1.003028687771049920e+00 7.887735011406389607e-02
-1.308996938995747206e+00 -1.763510621581410032e-01 9.701235497632200167e-01 7.425525083237830004e-02
-1.256637061435917246e+00 -2.127922804028440085e-01 9.420280630237819475e-01 6.968623419237560124e-02
-1.204277183876087287e+00 -2.486609647893129882e-01 9.090913764992240020e-01 6.502903940154600160e-02
-1.151917306316257550e+00 -2.837051287853870063e-01 8.635039607285009966e-01 6.019860245734529741e-02
-1.099557428756427591e+00 -3.194181411500319756e-01 8.220132767660910389e-01 5.541490120287780041e-02
-1.047197551196597631e+00 -3.557658715087779755e-01 7.836310765620819740e-01 5.067841844606219698e-02
-9.948376736367678941e-01 -3.885475398327299934e-01 7.307500863604999841e-01 4.644255890254420094e-02
-9.424777960769379348e-01 -4.223025831845769740e-01 6.811887944956449559e-01 4.224678126043390075e-02
-8.901179185171080865e-01 -4.564781536434380227e-01 6.330634855547739859e-01 3.809590152482580233e-02
-8.377580409572782383e-01 -4.908833203374730059e-01 5.826364879155550014e-01 3.466161122772899728e-02
-7.853981633974482790e-01 -5.251843057914969970e-01 5.314195151026579467e-01 3.157892853710130010e-02
-7.330382858376184307e-01 -5.958358709687440191e-01 4.803538422757149817e-01 2.851971454646570064e-02
-6.806784082777884715e-01 -6.708109639771520083e-01 4.315206906050940150e-01 2.627269966762120143e-02
-6.283185307179586232e-01 -7.557268445355039832e-01 3.871525190437870023e-01 2.592413036352090097e-02
-5.759586531581287749e-01 -8.340588260148820154e-01 3.513308928098800021e-01 3.538984988685250216e-02
-5.235987755982988157e-01 -9.017369679014870520e-01 3.131645384152589862e-01 4.549532536021230061e-02
-5.130210225559090897e-01 -9.019101641922050439e-01 3.140319861522080092e-01 4.253983238821559820e-02
-5.024432695135193638e-01 -9.024149441287190321e-01 3.139226884804249829e-01 3.958433941621879865e-02
-4.918655164711295824e-01 -9.032246483675590021e-01 3.129365700700659780e-01 3.662884644422199909e-02
-4.812877634287397455e-01 -9.175816197326109869e-01 3.087495716310459937e-01 3.357475709257119745e-02
-4.707100103863500196e-01 -9.379469961717350479e-01 3.022715289660170002e-01 3.047841215804019885e-02
-4.601322573439602381e-01 -9.586640469324549940e-01 2.956846589344410137e-01 2.738206722350920025e-02
-4.495545043015704567e-01 -9.797564725433339783e-01 2.889969916746020218e-01 2.428572228897820165e-02
-4.389767512591789544e-01 -1.001250152153450035e+00 2.822157862543919760e-01 2.118937735444730019e-02
-4.283989982167891730e-01 -1.017491581569980097e+00 2.753476210513909894e-01 1.809303241991630160e-02
-4.178212451743993916e-01 -1.032487146559579960e+00 2.683535445278280029e-01 1.498139550095180066e-02
-4.072434921320096657e-01 -1.049758619874040066e+00 2.608596480527030081e-01 1.173213065289020057e-02
-3.966657390896198843e-01 -1.067749145882219919e+00 2.532588715277480085e-01 8.482865804828529366e-03
-3.860879860472301028e-01 -1.086525612709279942e+00 2.455557780582899863e-01 5.233600956766890251e-03
-3.755102330048403769e-01 -1.097896345906119953e+00 2.377546746399200051e-01 1.689745474151439992e-03
-3.649324799624505400e-01 -1.104681969500530103e+00 2.298596298779390090e-01 -9.317960223223210013e-04
-3.543547269200608141e-01 -1.111467593094940032e+00 2.218744902557399923e-01 -4.271256836880780137e-03
-3.437769738776710327e-01 -1.110117902422750102e+00 2.152715958402429963e-01 -8.488273961171730053e-03
-3.331992208352812512e-01 -1.089132869921499935e+00 2.141528825690340032e-01 -9.690068905657609269e-03
-3.226214677928914698e-01 -1.091126161633229952e+00 2.099154808919050097e-01 -1.095481042815790035e-02
-3.120437147505017439e-01 -1.074095655707719921e+00 2.083151872610539967e-01 -1.198372107207600068e-02
-3.014659617081119070e-01 -1.067832404791110079e+00 2.053235071808990064e-01 -1.283528832939619981e-02
-2.908882086657221810e-01 -1.062071997493249986e+00 2.024111466331089959e-01 -1.360431523205700086e-02
-2.803104556233323996e-01 -1.032082980465230060e+00 2.011132944558489954e-01 -1.429131259719810046e-02
-2.697327025809426182e-01 -9.935487738300590177e-01 1.984180639825380010e-01 -1.497295039504079918e-02
-2.591549495385511159e-01 -9.535309152260029730e-01 1.962256031324799976e-01 -1.565331600800759851e-02
-2.485771964961613345e-01 -9.104687780070940262e-01 1.948732472735739962e-01 -1.620200264268810073e-02
-2.379994434537715531e-01 -8.681918065895090075e-01 1.932129574823409912e-01 -1.693202063138829830e-02
-2.274216904113817994e-01 -8.279922049527089767e-01 1.910853923748339900e-01 -1.732443082960670108e-02
-2.168439373689920457e-01 -7.822557176233280174e-01 1.902806381549040082e-01 -1.803280163370690053e-02
-2.062661843266022643e-01 -7.388311497534989503e-01 1.886336913540160032e-01 -1.847002418345829872e-02
-1.956884312842125107e-01 -6.892793350454019530e-01 1.874598328114230050e-01 -1.875783878870000004e-02
-1.851106782418227292e-01 -6.470742014325470137e-01 1.854116834559839944e-01 -1.833481829820480039e-02
-1.745329251994329478e-01 -6.064321929609569617e-01 1.839604475293100116e-01 -1.712170204689989969e-02
-1.639551721570429998e-01 -5.564999263466570145e-01 1.832132766074920094e-01 -1.907625149157950173e-02
-1.533774191146532462e-01 -4.987114786389130194e-01 1.826186609305290032e-01 -2.329645738196289839e-02
-1.427996660722632982e-01 -4.335090759493330226e-01 1.823641284376449900e-01 -2.881169396954140136e-02
-1.322219130298735168e-01 -3.720446539797859775e-01 1.824058028738139992e-01 -3.393321980317690056e-02
-1.216441599874835688e-01 -3.107839139477129864e-01 1.823461105127900106e-01 -3.933807338778640139e-02
-1.110664069450936348e-01 -2.484364569409850121e-01 1.823343058761240087e-01 -4.507126851950749719e-02
-1.004886539027038533e-01 -1.883909822645929988e-01 1.825909896720359915e-01 -4.986034776072530150e-02
-8.991090086031391926e-02 -1.281068951681980095e-01 1.825936861501230024e-01 -5.547170316417800173e-02
-7.933314781792397130e-02 -7.030273356539759599e-02 1.827366178730840118e-01 -6.025072594437520107e-02
-6.875539477553420376e-02 -2.037888980834609912e-02 1.829801647569599954e-01 -6.412552664960109727e-02
-5.817764173314425580e-02 3.250573997307090041e-02 1.830013332769120094e-01 -6.739687598551040437e-02
-4.759988869075449519e-02 9.421165122038159534e-02 1.832622202038770021e-01 -6.913282818033919530e-02
-3.702213564836454723e-02 1.510261561439829869e-01 1.835223721212599912e-01 -6.942728693229349712e-02
-2.644438260597477622e-02 2.073924343665609904e-01 1.835231165795550012e-01 -6.993622654341770384e-02
-1.586662956358486296e-02 2.592027528886470256e-01 1.837558371682689873e-01 -7.031813492486750639e-02
-5.288876521194919335e-03 3.092337858423189756e-01 1.837989096267620137e-01 -7.070702182708470118e-02
5.288876521194919335e-03 3.618932101531410206e-01 1.839537708616990064e-01 -7.143778526412170038e-02
1.586662956358486296e-02 4.161606255556279943e-01 1.840668351554730076e-01 -7.232097386664050609e-02
2.644438260597477622e-02 4.710634421547559847e-01 1.841745428168209964e-01 -7.339308808246559901e-02
3.702213564836454723e-02 5.252854335766510285e-01 1.842563022153509977e-01 -7.454425171757360358e-02
4.759988869075449519e-02 5.799062433164029473e-01 1.843834740496420044e-01 -7.543088340660160374e-02
5.817764173314425580e-02 6.343049449652510274e-01 1.845891588551059892e-01 -7.659489090126719857e-02
6.875539477553420376e-02 6.887014395119459564e-01 1.845949767883330039e-01 -7.753552284802339711e-02
7.933314781792415171e-02 7.430123986739870512e-01 1.847553404849339997e-01 -7.870047115501499491e-02
8.991090086031391926e-02 7.973255175807349993e-01 1.849244159620019867e-01 -7.956436474126940550e-02
1.004886539027038533e-01 8.514929862221369827e-01 1.849233969359040108e-01 -8.047145485442469548e-02
1.110664069450938152e-01 9.054868991422240221e-01 1.851614540533050024e-01 -8.127254584121240688e-02
1.216441599874835688e-01 9.595157232332720554e-01 1.852415197733240093e-01 -8.193518292091070410e-02
1.322219130298733503e-01 1.013829679218950064e+00 1.852950136034189899e-01 -8.277458252613309475e-02
1.427996660722632982e-01 1.067026444293670107e+00 1.854764727968570004e-01 -8.300785855775509592e-02
1.533774191146532462e-01 1.121109470630579974e+00 1.855014165387230130e-01 -8.347347738857939514e-02
1.639551721570429998e-01 1.172898983840479969e+00 1.855334897235489944e-01 -8.345222479131450544e-02
1.745329251994329478e-01 1.220736738739949923e+00 1.855420274517149970e-01 -8.260473715258340177e-02
1.851106782418227292e-01 1.270739660424250017e+00 1.852469865464989873e-01 -8.179860735740830668e-02
1.956884312842125107e-01 1.313623909929259925e+00 1.848682088810109925e-01 -7.763032673380790283e-02
2.062661843266022643e-01 1.355826191512830015e+00 1.845845792463010060e-01 -7.282938428092969319e-02
2.168439373689920457e-01 1.402001978435279961e+00 1.838741001119159890e-01 -6.890500229674059729e-02
2.274216904113817994e-01 1.451947808526429906e+00 1.829435006028480026e-01 -6.641613085430089769e-02
2.379994434537715531e-01 1.506087567134430039e+00 1.815824418742779944e-01 -6.505069273181569856e-02
2.485771964961613345e-01 1.541109792140090029e+00 1.814687989888839892e-01 -6.329686418124960690e-02
2.591549495385511159e-01 1.573930673461110041e+00 1.814463882721349952e-01 -6.190215368843739879e-02
2.697327025809426182e-01 1.605678821878270046e+00 1.818299242031710117e-01 -6.077278506040240114e-02
2.803104556233323996e-01 1.625268250294829908e+00 1.833535785642529947e-01 -5.952455839258730119e-02
2.908882086657221810e-01 1.654133134573610109e+00 1.847833177118629877e-01 -5.838612455798160294e-02
3.014659617081119070e-01 1.690049107308609910e+00 1.859034962209870079e-01 -5.775104346438830055e-02
3.120437147505017439e-01 1.693611302843899935e+00 1.897970549265380058e-01 -5.713640875973659966e-02
3.226214677928914698e-01 1.679705553507450100e+00 1.931690227065250010e-01 -5.601966583537690281e-02
3.331992208352812512e-01 1.671192605311430102e+00 1.955943443938089887e-01 -5.529457910765760154e-02
3.437769738776710327e-01 1.660013949933099919e+00 1.984537771201289880e-01 -5.504947431757180321e-02
3.543547269200608141e-01 1.643803148825160099e+00 2.021039775219669876e-01 -5.561203399232320099e-02
3.649324799624505400e-01 1.624615026716609956e+00 2.060680031048250094e-01 -5.624861906317400045e-02
3.755102330048403769e-01 1.610008000329790079e+00 2.092014601339790003e-01 -5.739610890730630077e-02
3.860879860472301028e-01 1.602135283065770022e+00 2.109337553576769997e-01 -5.913040027526930004e-02
3.966657390896198843e-01 1.598818111965500055e+00 2.130495921522130021e-01 -6.138069444414909898e-02
4.072434921320096657e-01 1.596757400350850009e+00 2.171400754434950064e-01 -6.383075464954270084e-02
4.178212451743993916e-01 1.594864378155959939e+00 2.211694177912449932e-01 -6.684412793770450056e-02
4.283989982167891730e-01 1.582154384615299891e+00 2.268900156019610093e-01 -7.080443762580360123e-02
4.389767512591789544e-01 1.558420993672670063e+00 2.347837159771510029e-01 -7.626037986544570435e-02
4.495545043015704567e-01 1.526374806992530031e+00 2.434169346443449955e-01 -8.240022985302830616e-02
4.601322573439602381e-01 1.494079572135359912e+00 2.522014543774159789e-01 -8.867147646197390265e-02
4.707100103863500196e-01 1.461948485281240107e+00 2.608841305612989991e-01 -9.507375030562230378e-02
4.812877634287397455e-01 1.429924157529989914e+00 2.695259693811939972e-01 -1.015507108457480018e-01
4.918655164711295824e-01 1.386974198168650085e+00 2.781628982697240127e-01 -1.081534934703600043e-01
5.024432695135193638e-01 1.337508130174869914e+00 2.867860132971600251e-01 -1.150708915402860050e-01
5.130210225559090897e-01 1.288842507644990087e+00 2.955605596352570141e-01 -1.222624243538790040e-01
5.235987755982988157e-01 1.251111719244270004e+00 3.054282738077879755e-01 -1.258110942505659968e-01
5.759586531581287749e-01 1.110980264526300054e+00 3.545332162304919987e-01 -1.365794521649180138e-01
6.283185307179586232e-01 1.018045723991050089e+00 3.951204071613860225e-01 -1.473691470787039937e-01
6.806784082777884715e-01 9.157593794054870173e-01 4.384474712246410055e-01 -1.583982619933559932e-01
7.330382858376184307e-01 8.289341459013960245e-01 4.861410466110719919e-01 -1.653609979047510059e-01
7.853981633974482790e-01 7.464922403891449676e-01 5.351604617353189486e-01 -1.717725927582849921e-01
8.377580409572782383e-01 6.998690967710590183e-01 5.841890056556729993e-01 -1.780823616277049937e-01
8.901179185171080865e-01 6.521842888047310050e-01 6.330634855547739859e-01 -1.849609443503300032e-01
9.424777960769379348e-01 6.034475534263620267e-01 6.811887944956449559e-01 -1.917109112497439871e-01
9.948376736367678941e-01 5.553114855423489926e-01 7.307500863604999841e-01 -1.986339424846539914e-01
1.047197551196597631e+00 5.085667897018130157e-01 7.836310765620829732e-01 -2.055506153456909957e-01
1.099557428756427591e+00 4.565694292520999786e-01 8.220132767660910389e-01 -2.132776217487749870e-01
1.151917306316257550e+00 4.054795120124140007e-01 8.635039607285009966e-01 -2.210017022353749916e-01
1.204277183876087287e+00 3.553453689038659769e-01 9.090913764992240020e-01 -2.287303962760980081e-01
1.256637061435917246e+00 3.040854120324820165e-01 9.420280630237819475e-01 -2.367944404224990029e-01
1.308996938995747206e+00 2.520336840024349767e-01 9.701235497632200167e-01 -2.449694127195430060e-01
1.361356816555576943e+00 1.999467673466389928e-01 1.003028687771049920e+00 -2.532416817934909914e-01
1.413716694115406902e+00 1.492050725033169933e-01 1.031360794873799946e+00 -2.613161334509139788e-01
1.466076571675236861e+00 1.011189217687540054e-01 1.042654747992789899e+00 -2.687052124304640244e-01
1.518436449235066599e+00 5.152464102540459806e-02 1.059660851884139943e+00 -2.762518880491879880e-01
1.570796326794896558e+00 2.573462590318270130e-05 1.082755945187279911e+00 -2.838077239427360121e-01
1.623156204354726517e+00 -3.601480812616499744e-02 1.059663201569390090e+00 -2.853838370047859785e-01
1.675516081914556477e+00 -7.072008007268310026e-02 1.042655468783999950e+00 -2.869643529760870226e-01
1.727875959474386214e+00 -1.043700418450189960e-01 1.031359907744870075e+00 -2.889758989885700124e-01
1.780235837034216173e+00 -1.398893567248140068e-01 1.003025482040029948e+00 -2.884669172307789964e-01
1.832595714594046132e+00 -1.763552093457849967e-01 9.701203821450650189e-01 -2.871067974065509842e-01
1.884955592153875870e+00 -2.127964257017800065e-01 9.420248996412660114e-01 -2.860516288442390143e-01
1.937315469713705829e+00 -2.486634790104189918e-01 9.090885215148789555e-01 -2.844706233161459763e-01
1.989675347273535788e+00 -2.837030863186170149e-01 8.635062496003409471e-01 -2.824242130345769874e-01
2.042035224833365525e+00 -3.194115422158270157e-01 8.220206204494020508e-01 -2.803825323958090143e-01
2.094395102393195263e+00 -3.557548833372319863e-01 7.836443504305770080e-01 -2.779949601561910177e-01
2.146754979953025444e+00 -3.885412952115239738e-01 7.307587393467569470e-01 -2.776451645903970089e-01
2.199114857512855181e+00 -4.223006477824030047e-01 6.811914418895319567e-01 -2.769800370243299947e-01
2.251474735072684918e+00 -4.564805345804079928e-01 6.330602652950489961e-01 -2.751481951354640132e-01
2.303834612632515100e+00 -4.908871470339279952e-01 5.826311511174699920e-01 -2.791969522772699830e-01
2.356194490192344837e+00 -5.251881381223070244e-01 5.314143166739230262e-01 -2.838780436523509754e-01
2.408554367752174574e+00 -5.583396983517819878e-01 4.803488559444979988e-01 -2.885598687559760012e-01
2.460914245312004756e+00 -5.958157295752910532e-01 4.315163330337359882e-01 -3.006502371649770189e-01
2.513274122871834493e+00 -6.432316662300450183e-01 3.871486246816709942e-01 -3.295516880813659788e-01
2.565634000431664230e+00 -6.840636344149100267e-01 3.513297698841740258e-01 -3.588994640219679844e-01
2.617993877991494411e+00 -8.092629936139029700e-01 2.969659429584159960e-01 -3.923202884361299825e-01
2.670353755551324149e+00 -8.061497642615730319e-01 2.575971113051839789e-01 -4.207694440546009829e-01
2.722713633111153886e+00 -8.030365349092429827e-01 2.171269867578489998e-01 -4.419867773804970201e-01
2.775073510670984067e+00 -7.999233055569130446e-01 1.754967264812329897e-01 -4.632041107063920027e-01
2.827433388230813804e+00 -7.189901263775230200e-01 1.643426698951599985e-01 -4.354442582988199972e-01
2.879793265790643542e+00 -5.991362809648930199e-01 1.753636302682050063e-01 -3.831901720969460023e-01
