# Angle of attack [rad] 	 Lift coefficient [-] 	 Drag coefficient [-] 	 Moment coefficient [-]
-3.141592653589793116e+00 0.000000000000000000e+00 3.294530760824659898e-02 0.000000000000000000e+00
-3.089232776029963379e+00 9.208177408622419957e-02 3.409777641437460038e-02 1.200000003610469934e-01
-3.036872898470133197e+00 1.841624823615209960e-01 3.717206671295730097e-02 2.399999989225340136e-01
-2.984513020910303460e+00 2.762437098901999732e-01 4.213911973586539905e-02 3.600006586823850108e-01
-2.932153143350473723e+00 3.683288287134359740e-01 5.015227369766039889e-02 4.043414079050079990e-01
-2.879793265790643542e+00 4.604051989521970034e-01 7.212442317258049851e-02 4.108526928191820193e-01
-2.827433388230813804e+00 5.524912843816489616e-01 1.092359604944500018e-01 4.173646640752550208e-01
-2.775073510670984067e+00 6.445898429575870336e-01 1.524467660115509937e-01 4.292547401662130113e-01
-2.722713633111153886e+00 7.368098771070960007e-01 2.009927145953399885e-01 4.519060153109750178e-01
-2.670353755551324149e+00 8.291538782483850456e-01 2.540645237569050252e-01 4.745519897350429783e-01
-2.617993877991494411e+00 9.218476235281779507e-01 3.114379665867770264e-01 4.941291151277810156e-01
-2.565634000431664230e+00 9.639298291024479548e-01 3.728644102061420273e-01 4.830345622106830272e-01
-2.513274122871834493e+00 9.045306667989959637e-01 4.364471596518019747e-01 4.690133834142239944e-01
-2.460914245312004756e+00 8.522502241118740107e-01 5.029233544012859936e-01 4.555877961101180151e-01
-2.408554367752174574e+00 8.024583496803749938e-01 5.704901109782539725e-01 4.456328813584909954e-01
-2.356194490192344837e+00 7.545256481534849957e-01 6.388117429329790431e-01 4.382651891784740128e-01
-2.303834612632515100e+00 7.076966664126429496e-01 7.073265723901189794e-01 4.308967240009040078e-01
-2.251474735072684918e+00 6.607745494748209492e-01 7.748842908989179712e-01 4.272167984580390043e-01
-2.199114857512855181e+00 6.134115544380279728e-01 8.411119588414449622e-01 4.254324542317409752e-01
-2.146754979953025444e+00 5.654237523087209949e-01 9.056798647967999605e-01 4.250010296352659811e-01
-2.094395102393195263e+00 5.161121797352969942e-01 9.665151437341500396e-01 4.247796427652559825e-01
-2.042035224833365525e+00 4.658279975027340147e-01 1.023898283393769981e+00 4.253806633991740194e-01
-1.989675347273535788e+00 4.146981306560900138e-01 1.077747182014290095e+00 4.263841573804360019e-01
-1.937315469713705829e+00 3.626698143104850058e-01 1.127075651964259961e+00 4.273907643604279993e-01
-1.884955592153875870e+00 3.098809081138160226e-01 1.169757304737679915e+00 4.270283713028010242e-01
-1.832595714594046132e+00 2.568811262929340256e-01 1.207438469628590028e+00 4.263563853694090078e-01
-1.780235837034216173e+00 2.038309567603759920e-01 1.239937914271600050e+00 4.253205043569019961e-01
-1.727875959474386214e+00 1.511919893342359988e-01 1.264806072533990022e+00 4.230034006149879788e-01
-1.675516081914556477e+00 9.955660088856259360e-02 1.282505009134170093e+00 4.190735395154779885e-01
-1.623156204354726517e+00 4.908640022691020122e-02 1.294260910565200096e+00 4.146407492441400167e-01
-1.570796326794896558e+00 -1.922602973053749977e-10 1.299999999977520027e+00 4.102096574541039820e-01
-1.518436449235066599e+00 -4.908639993260580092e-02 1.294260910599609904e+00 4.007798945610109853e-01
-1.466076571675236861e+00 -9.955660074985139829e-02 1.282505009175950006e+00 3.913522570720490146e-01
-1.413716694115406902e+00 -1.511919897466300067e-01 1.264806072339160092e+00 3.815450929774920064e-01
-1.361356816555576943e+00 -2.038309571727699998e-01 1.239937914076769898e+00 3.704941074527819955e-01
-1.308996938995747206e+00 -2.568811260794010010e-01 1.207438469764340105e+00 3.584189115486249855e-01
-1.256637061435917246e+00 -3.098809078664679917e-01 1.169757304934089914e+00 3.460829644067809907e-01
-1.204277183876087287e+00 -3.626698146495649921e-01 1.127075651642780008e+00 3.335468848375049977e-01
-1.151917306316257550e+00 -4.146981302756180265e-01 1.077747182375019985e+00 3.201255350295340030e-01
-1.099557428756427591e+00 -4.658279974323850103e-01 1.023898283470890069e+00 3.067038726950460092e-01
-1.047197551196597631e+00 -5.161121798942960304e-01 9.665151435379939482e-01 2.933473286072409980e-01
-9.948376736367678941e-01 -5.654237517857400031e-01 9.056798654419969674e-01 2.802421684279460257e-01
-9.424777960769379348e-01 -6.134115545294259730e-01 8.411119587179429757e-01 2.671923520072210234e-01
-8.901179185171080865e-01 -6.607745498425979802e-01 7.748842903714090458e-01 2.542189990724320059e-01
-8.377580409572782383e-01 -7.076966666561570474e-01 7.073265720338359763e-01 2.413536120479810032e-01
-7.853981633974482790e-01 -7.545256477493540448e-01 6.388117435242579578e-01 2.287038955841440013e-01
-7.330382858376184307e-01 -8.399583496770749447e-01 5.704901109829300099e-01 2.160520180579950100e-01
-6.806784082777884715e-01 -9.272502242109059711e-01 5.029233542742239660e-01 1.864682059093530075e-01
-6.283185307179586232e-01 -1.017030666169030040e+00 4.364471603261380062e-01 1.345865733381970131e-01
-5.759586531581287749e-01 -1.113929829293970108e+00 3.728644100011260232e-01 7.958923325611540200e-02
-5.235987755982988157e-01 -1.244727565589740070e+00 2.789446332703739984e-01 4.932584031747160036e-02
-5.130210225559090897e-01 -1.271964115242750104e+00 2.569535778455669939e-01 4.577026383061959941e-02
-5.024432695135193638e-01 -1.298553255504510062e+00 2.347613062951549867e-01 4.221536800609519691e-02
-4.918655164711295824e-01 -1.324537010700199913e+00 2.125808678234329951e-01 3.866122049176400066e-02
-4.812877634287397455e-01 -1.330222617425929954e+00 2.001517728675019925e-01 3.545674770682229887e-02
-4.707100103863500196e-01 -1.326986385910660093e+00 1.919236510623109904e-01 3.240247267302490131e-02
-4.601322573439602381e-01 -1.323296824035260055e+00 1.834342115007570051e-01 2.934893646818730051e-02
-4.495545043015704567e-01 -1.319156453632460035e+00 1.749391188128540109e-01 2.629624045607089830e-02
-4.389767512591789544e-01 -1.314567551762310105e+00 1.664483460293300077e-01 2.324450543119640014e-02
-4.283989982167891730e-01 -1.305787446398640084e+00 1.579615513444589947e-01 2.019387650913759963e-02
-4.178212451743993916e-01 -1.295166481212999932e+00 1.496590465217960131e-01 1.723766723794750017e-02
-4.072434921320096657e-01 -1.279868757287740078e+00 1.429836861003219994e-01 1.512375349333209933e-02
-3.966657390896198843e-01 -1.264549062606290075e+00 1.363083381673380057e-01 1.301625797618389917e-02
-3.860879860472301028e-01 -1.249206008428239922e+00 1.296330041125970112e-01 1.091547617595819974e-02
-3.755102330048403769e-01 -1.234016738736269936e+00 1.229576855400049962e-01 8.831442145864220120e-03
-3.649324799624505400e-01 -1.216868054870400062e+00 1.164279468624170033e-01 6.767146718277369799e-03
-3.543547269200608141e-01 -1.199807362861950111e+00 1.099582408859350047e-01 4.656303899179459714e-03
-3.437769738776710327e-01 -1.181579772209979895e+00 1.039273328668819940e-01 2.859241521958379943e-03
-3.331992208352812512e-01 -1.162222535375559973e+00 9.839893490931829467e-02 1.308790284297500035e-03
-3.226214677928914698e-01 -1.143120378053060104e+00 9.286967311114270596e-02 -2.804429091730859880e-04
-3.120437147505017439e-01 -1.124274225635530033e+00 8.743293337204699478e-02 -1.736789204580400014e-03
-3.014659617081119070e-01 -1.105763629954819915e+00 8.238357439512440650e-02 -2.682447006598409883e-03
-2.908882086657221810e-01 -1.087296591252500111e+00 7.733244369210440228e-02 -3.625981987705540095e-03
-2.803104556233323996e-01 -1.068865332454389971e+00 7.227828876184859419e-02 -4.568025168213770033e-03
-2.697327025809426182e-01 -1.053241175826090004e+00 6.749256496544510375e-02 -4.903003127218840025e-03
-2.591549495385511159e-01 -1.037935049024589995e+00 6.273610574694959974e-02 -5.168434823549559673e-03
-2.485771964961613345e-01 -1.022636339324390020e+00 5.797884387909080228e-02 -5.433535949511200322e-03
-2.379994434537715531e-01 -1.009583015324150068e+00 5.349324878775939957e-02 -5.166769827068050207e-03
-2.274216904113817994e-01 -9.980442255003519891e-01 4.918901496908090198e-02 -4.487851051018200248e-03
-2.168439373689920457e-01 -9.865305338289700465e-01 4.488362479045140269e-02 -3.970126018041130259e-03
-2.062661843266022643e-01 -9.704901817527480379e-01 4.082834101932209664e-02 -4.433955157901179819e-03
-1.956884312842125107e-01 -9.440224678824560289e-01 3.735422545494530150e-02 -6.872730157580090107e-03
-1.851106782418227292e-01 -9.176641477163279825e-01 3.388034309759020007e-02 -9.340627497552019334e-03
-1.745329251994329478e-01 -8.918781197459809684e-01 3.040541298812100141e-02 -1.155123091776879933e-02
-1.639551721570429998e-01 -8.257066020043269949e-01 2.810358874375139954e-02 -1.784825148496540018e-02
-1.533774191146532462e-01 -7.597257859512630551e-01 2.580275872078080165e-02 -2.424660962170260142e-02
-1.427996660722632982e-01 -6.938848452817759638e-01 2.350289080171749992e-02 -3.073957990565190021e-02
-1.322219130298735168e-01 -6.215555391168829935e-01 2.177207451705420044e-02 -3.715863588484460273e-02
-1.216441599874835688e-01 -5.464738610677369879e-01 2.028517322248889893e-02 -4.352111775488209933e-02
-1.110664069450936348e-01 -4.714127247700299894e-01 1.879858156069710157e-02 -4.988385510749270002e-02
-1.004886539027038533e-01 -3.932410735622769993e-01 1.756890896233050114e-02 -5.611359337793869750e-02
-8.991090086031391926e-02 -3.104485887438819813e-01 1.672449076250660110e-02 -6.214563825998670188e-02
-7.933314781792397130e-02 -2.276444318667099898e-01 1.588024755019280115e-02 -6.818246387871630676e-02
-6.875539477553420376e-02 -1.441874089304669981e-01 1.508498066308630071e-02 -7.420029729012979358e-02
-5.817764173314425580e-02 -5.495938872751159748e-02 1.472913286328839978e-02 -7.999789301270450459e-02
-4.759988869075449519e-02 3.427529677076959769e-02 1.437323626875999967e-02 -8.580510919747140475e-02
-3.702213564836454723e-02 1.235174090811029940e-01 1.401729517717869959e-02 -9.148518888273170224e-02
-2.644438260597477622e-02 2.127610121238890095e-01 1.382665991753090004e-02 -9.657885084456109548e-02
-1.586662956358486296e-02 3.017048419380399804e-01 1.369072479439320013e-02 -1.016040718349340011e-01
-5.288876521194919335e-03 3.897055579126459945e-01 1.363061410425320079e-02 -1.062757223067480050e-01
5.288876521194919335e-03 4.770387204591680086e-01 1.360766477297099993e-02 -1.106854514406969969e-01
1.586662956358486296e-02 5.637046727454879669e-01 1.362188244440410041e-02 -1.148421585295419933e-01
2.644438260597477622e-02 6.491411272472360494e-01 1.369005991386679916e-02 -1.186104127406479997e-01
3.702213564836454723e-02 7.340819578406090340e-01 1.377919344658859978e-02 -1.222288665783849981e-01
4.759988869075449519e-02 8.179081659620289768e-01 1.391410531816610063e-02 -1.255277521625469961e-01
5.817764173314425580e-02 9.009651460041879778e-01 1.408040790590009937e-02 -1.286348863099290030e-01
6.875539477553420376e-02 9.833926813084999941e-01 1.427240045079600055e-02 -1.315853300633020029e-01
7.933314781792415171e-02 1.064446444108120060e+00 1.451780602147969938e-02 -1.342338049585869997e-01
8.991090086031391926e-02 1.144948188007800072e+00 1.478429194773669964e-02 -1.367689523340699931e-01
1.004886539027038533e-01 1.224251693335419944e+00 1.509625235974379996e-02 -1.390652312374039967e-01
1.110664069450938152e-01 1.302403346747369906e+00 1.545272838970489920e-02 -1.411528440478179991e-01
1.216441599874835688e-01 1.379784064004990096e+00 1.583884098887159905e-02 -1.431013165687470001e-01
1.322219130298733503e-01 1.454653234009410046e+00 1.631607977524340142e-02 -1.446574432183959924e-01
1.427996660722632982e-01 1.528373685952900018e+00 1.683690590736950168e-02 -1.460497780978400051e-01
1.533774191146532462e-01 1.599726431423690087e+00 1.744855861687169898e-02 -1.471083105440040006e-01
1.639551721570429998e-01 1.667968199555619924e+00 1.818769255476700153e-02 -1.477980561388159975e-01
1.745329251994329478e-01 1.734488143294020013e+00 1.899498696273009893e-02 -1.482890122090800011e-01
1.851106782418227292e-01 1.794190552308660092e+00 2.013502634975620001e-02 -1.482081019351429996e-01
1.956884312842125107e-01 1.849600912287560073e+00 2.148792636819649854e-02 -1.479420306702690091e-01
2.062661843266022643e-01 1.902057837677030072e+00 2.323828360565709933e-02 -1.473332293751750122e-01
2.168439373689920457e-01 1.945812940783580025e+00 2.579866901417349895e-02 -1.464629046175320026e-01
2.274216904113817994e-01 1.984387338634389986e+00 2.881303688129219914e-02 -1.454571675657430063e-01
2.379994434537715531e-01 2.004863120913139785e+00 3.362566852636929976e-02 -1.439827419147650112e-01
2.485771964961613345e-01 2.021310879550520134e+00 3.893045649768359789e-02 -1.426313744361810132e-01
2.591549495385511159e-01 2.030920759713489954e+00 4.495727742461899656e-02 -1.415106715409009952e-01
2.697327025809426182e-01 2.039539445059599831e+00 5.124909346212420252e-02 -1.403036373210150012e-01
2.803104556233323996e-01 2.046460380992130013e+00 5.774230875472610020e-02 -1.390493809543739967e-01
2.908882086657221810e-01 2.040921511130310062e+00 6.521880200377300207e-02 -1.377051695967559941e-01
3.014659617081119070e-01 2.035230620260089829e+00 7.267677765404970125e-02 -1.363601753391660010e-01
3.120437147505017439e-01 2.029791520311489794e+00 8.009924093998579964e-02 -1.350144702112980044e-01
3.226214677928914698e-01 2.000964086960340005e+00 8.999358118747430302e-02 -1.346342852434599946e-01
3.331992208352812512e-01 1.966220008294480071e+00 1.005053354405300026e-01 -1.344455054085260115e-01
3.437769738776710327e-01 1.931475929628609922e+00 1.110031140287620066e-01 -1.342087505288500071e-01
3.543547269200608141e-01 1.901293808338019975e+00 1.220876429359829957e-01 -1.352251101623760110e-01
3.649324799624505400e-01 1.875673643734599993e+00 1.337651265874340023e-01 -1.375227845468030008e-01
3.755102330048403769e-01 1.850053479131190004e+00 1.454401339823239991e-01 -1.398154232973770061e-01
3.860879860472301028e-01 1.824433314527770023e+00 1.571162587640269892e-01 -1.421024569509440061e-01
3.966657390896198843e-01 1.798813149924360033e+00 1.687508279315559911e-01 -1.443832268158979915e-01
4.072434921320096657e-01 1.773192985320940052e+00 1.803104724882209908e-01 -1.466569667833139967e-01
4.178212451743993916e-01 1.747572820717530062e+00 1.921685752437400085e-01 -1.489227804997179938e-01
4.283989982167891730e-01 1.741018021282400019e+00 2.042455114697870056e-01 -1.526104930401460114e-01
4.389767512591789544e-01 1.734979948563839969e+00 2.163462304822970084e-01 -1.564539643842370042e-01
4.495545043015704567e-01 1.723824721505039959e+00 2.284469494948060120e-01 -1.602944205796940080e-01
4.601322573439602381e-01 1.712169948906409944e+00 2.405476685073159870e-01 -1.641317392900140115e-01
4.707100103863500196e-01 1.700015630767949926e+00 2.526483875198249907e-01 -1.679657914697240129e-01
4.812877634287397455e-01 1.687361767089659903e+00 2.647491065323350212e-01 -1.717964408980859892e-01
4.918655164711295824e-01 1.672907973299549989e+00 2.767855439443789867e-01 -1.754625650949309945e-01
5.024432695135193638e-01 1.655061228418619912e+00 2.886719909255219818e-01 -1.787517886587859928e-01
5.130210225559090897e-01 1.637511617986880053e+00 3.005584379066649769e-01 -1.820409921240140061e-01
5.235987755982988157e-01 1.621849695750940068e+00 3.124448848878069729e-01 -1.853301752060030061e-01
5.759586531581287749e-01 1.527042613277109995e+00 3.728644100011270224e-01 -2.018528500761619937e-01
6.283185307179586232e-01 1.404686665955759972e+00 4.364471603261380062e-01 -2.188563317898989946e-01
6.806784082777884715e-01 1.292500320301289918e+00 5.029233542742239660e-01 -2.354964299222560009e-01
7.330382858376184307e-01 1.183869070967249915e+00 5.704901109829310091e-01 -2.492023213006800131e-01
7.853981633974482790e-01 1.077893782499079967e+00 6.388117435242579578e-01 -2.607222113505889838e-01
8.377580409572782383e-01 1.010995238080230063e+00 7.073265720338359763e-01 -2.722401295363339746e-01
8.901179185171080865e-01 9.439636426322830509e-01 7.748842903714090458e-01 -2.831186542001479789e-01
9.424777960769379348e-01 8.763022207563220256e-01 8.411119587179429757e-01 -2.936667443681910128e-01
9.948376736367678941e-01 8.077482168367720039e-01 9.056798654419969674e-01 -3.039726117932869953e-01
1.047197551196597631e+00 7.373031141347079487e-01 9.665151435379949474e-01 -3.142564595545589978e-01
1.099557428756427591e+00 6.654685677605499672e-01 1.023898283470890069e+00 -3.245048432415529871e-01
1.151917306316257550e+00 5.924259003937399903e-01 1.077747182375019985e+00 -3.348784705298850084e-01
1.204277183876087287e+00 5.180997352136650358e-01 1.127075651642780008e+00 -3.452495638346619877e-01
1.256637061435917246e+00 4.426870112378120115e-01 1.169757304934089914e+00 -3.552667423442810168e-01
1.308996938995747206e+00 3.669730372562869936e-01 1.207438469764340105e+00 -3.652029994784949940e-01
1.361356816555576943e+00 2.911870816753849844e-01 1.239937914076769898e+00 -3.750225242944820181e-01
1.413716694115406902e+00 2.159885567808990103e-01 1.264806072339160092e+00 -3.843454930854610097e-01
1.466076571675236861e+00 1.422237153569300139e-01 1.282505009175950006e+00 -3.930651811088720082e-01
1.518436449235066599e+00 7.012342847515079525e-02 1.294260910599609904e+00 -4.016114663065999957e-01
1.570796326794896558e+00 2.746574223420680146e-10 1.299999999977520027e+00 -4.101595322162570056e-01
1.623156204354726517e+00 -4.908640022690999999e-02 1.294260910565200096e+00 -4.145868572162310084e-01
1.675516081914556477e+00 -9.955660088856289891e-02 1.282505009134170093e+00 -4.190158873652469751e-01
1.727875959474386214e+00 -1.511919893342359988e-01 1.264806072533990022e+00 -4.229414287568820097e-01
1.780235837034216173e+00 -2.038309567603759920e-01 1.239937914271600050e+00 -4.252561965543780187e-01
1.832595714594046132e+00 -2.568811262929340256e-01 1.207438469628590028e+00 -4.262902099733369976e-01
1.884955592153875870e+00 -3.098809081138160226e-01 1.169757304737679915e+00 -4.269601636731439886e-01
1.937315469713705829e+00 -3.626698143104850058e-01 1.127075651964259961e+00 -4.273214462858169749e-01
1.989675347273535788e+00 -4.146981306560900138e-01 1.077747182014290095e+00 -4.263158799011820266e-01
2.042035224833365525e+00 -4.658279975027340147e-01 1.023898283393769981e+00 -4.253133979280570021e-01
2.094395102393195263e+00 -5.161121797352969942e-01 9.665151437341500396e-01 -4.247154421484339859e-01
2.146754979953025444e+00 -5.654237523087209949e-01 9.056798647967999605e-01 -4.249414376544859984e-01
2.199114857512855181e+00 -6.134115544380279728e-01 8.411119588414449622e-01 -4.253790528961169937e-01
2.251474735072684918e+00 -6.607745494748209492e-01 7.748842908989169720e-01 -4.271723893451899734e-01
2.303834612632515100e+00 -7.076966664126429496e-01 7.073265723901189794e-01 -4.308600632905100203e-01
2.356194490192344837e+00 -7.545256481534849957e-01 6.388117429329790431e-01 -4.382402585660090111e-01
2.408554367752174574e+00 -8.024583496803749938e-01 5.704901109782539725e-01 -4.456176420015309780e-01
2.460914245312004756e+00 -8.522502241118740107e-01 5.029233544012849944e-01 -4.555806617314849816e-01
2.513274122871834493e+00 -9.045306667989959637e-01 4.364471596518019747e-01 -4.690122348125180252e-01
2.565634000431664230e+00 -9.639298291024479548e-01 3.728644102061420273e-01 -4.830345622106830272e-01
2.617993877991494411e+00 -9.218476235281779507e-01 3.114379665867770264e-01 -4.941291151277810156e-01
2.670353755551324149e+00 -8.291528882322269922e-01 2.540639418606139843e-01 -4.744878423998860062e-01
2.722713633111153886e+00 -7.368074669867910043e-01 2.009913854175600090e-01 -4.518565663123059739e-01
2.775073510670984067e+00 -6.445949241588160294e-01 1.524493611187260067e-01 -4.292280785516169872e-01
2.827433388230813804e+00 -5.524862655073800033e-01 1.092338377453779957e-01 -4.373478774986199746e-01
2.879793265790643542e+00 -4.604052333054989843e-01 7.212442317258059565e-02 -4.608470924323320173e-01
