# Angle of attack [rad] 	 Lift coefficient [-] 	 Drag coefficient [-] 	 Moment coefficient [-]
-3.141592653589793116e+00 0.000000000000000000e+00 2.173748232233509853e-02 0.000000000000000000e+00
-3.089232776029963379e+00 8.417473440019919428e-02 2.292389451834669911e-02 1.200000003610469934e-01
-3.036872898470133197e+00 1.683494675380859951e-01 2.608874783691780136e-02 2.399999989225340136e-01
-2.984513020910303460e+00 2.525246644776100169e-01 3.120199757029879992e-02 3.600006586823850108e-01
-2.932153143350473723e+00 3.367032123126260101e-01 4.265794973768340104e-02 4.003240438879059893e-01
-2.879793265790643542e+00 4.208736702674589769e-01 7.349006566395570317e-02 4.008100479964840090e-01
-2.827433388230813804e+00 5.050530004668080108e-01 1.112193955461519973e-01 4.012961033338119932e-01
-2.775073510670984067e+00 5.892184995922690183e-01 1.549586673477620080e-01 4.089432971472080069e-01
-2.722713633111153886e+00 6.734000707904930216e-01 2.040871440539530068e-01 4.309227914705450191e-01
-2.670353755551324149e+00 7.575735075396700102e-01 2.577658774168100075e-01 4.529068063539529732e-01
-2.617993877991494411e+00 8.417473414830799472e-01 3.157823185943889888e-01 4.722653825425849883e-01
-2.565634000431664230e+00 8.823899628970119924e-01 3.778898464553039904e-01 4.653329102264779915e-01
-2.513274122871834493e+00 8.360281512425370432e-01 4.421733330760029834e-01 4.558714099558390243e-01
-2.460914245312004756e+00 7.945652097426939564e-01 5.093784429195340469e-01 4.467933353628310011e-01
-2.408554367752174574e+00 7.545358464400250265e-01 5.776834208581990149e-01 4.399358951420980213e-01
-2.356194490192344837e+00 7.154505436570429699e-01 6.467492363089849539e-01 4.349036839488559791e-01
-2.303834612632515100e+00 6.759027567729110064e-01 7.160076755420959893e-01 4.299280390819010256e-01
-2.251474735072684918e+00 6.346546541781949990e-01 7.842956717830560365e-01 4.279800168019459727e-01
-2.199114857512855181e+00 5.921587837077809668e-01 8.512367108296799989e-01 4.275848763400509900e-01
-2.146754979953025444e+00 5.485440850472189656e-01 9.164974704899100377e-01 4.283591527689569745e-01
-2.094395102393195263e+00 5.028752010526359451e-01 9.779810480428390296e-01 4.294655325738219731e-01
-2.042035224833365525e+00 4.557727215325539927e-01 1.035971886477569992e+00 4.308402443939379767e-01
-1.989675347273535788e+00 4.074125920342919760e-01 1.090387138283299917e+00 4.323523699264170128e-01
-1.937315469713705829e+00 3.577015435113100050e-01 1.140229368161860046e+00 4.338638598384029765e-01
-1.884955592153875870e+00 3.066995884226980107e-01 1.183347974661679958e+00 4.335676694080479732e-01
-1.832595714594046132e+00 2.551435839394339822e-01 1.221408511942869923e+00 4.328631470807550174e-01
-1.780235837034216173e+00 2.032018002190270067e-01 1.254227760954419901e+00 4.317302567786999723e-01
-1.727875959474386214e+00 1.512264913281129997e-01 1.279328267911469919e+00 4.292171765238029790e-01
-1.675516081914556477e+00 9.987756040181970663e-02 1.297177629478329930e+00 4.249657214786620174e-01
-1.623156204354726517e+00 4.939439192307760323e-02 1.309016144756369959e+00 4.201702584531730178e-01
-1.570796326794896558e+00 -1.934872771534720089e-10 1.314769264758169909e+00 4.153737907817420250e-01
-1.518436449235066599e+00 -4.939439162692659674e-02 1.309016144790859926e+00 4.054868799157619885e-01
-1.466076571675236861e+00 -9.987756026356410521e-02 1.297177629520450015e+00 3.955990741987310266e-01
-1.413716694115406902e+00 -1.512264917353070004e-01 1.279328267714820111e+00 3.853000972078129971e-01
-1.361356816555576943e+00 -2.032018006262210075e-01 1.254227760757770094e+00 3.737170176733259908e-01
-1.308996938995747206e+00 -2.551435837306539889e-01 1.221408512079970032e+00 3.611528012148459976e-01
-1.256637061435917246e+00 -3.066995881834500004e-01 1.183347974860099905e+00 3.483042940514209929e-01
-1.204277183876087287e+00 -3.577015438352870169e-01 1.140229367837019891e+00 3.352246209273859745e-01
-1.151917306316257550e+00 -4.074125916707649897e-01 1.090387138647789911e+00 3.211215063044819962e-01
-1.099557428756427591e+00 -4.557727214662929960e-01 1.035971886555500099e+00 3.070183936432069882e-01
-1.047197551196597631e+00 -5.028752011998840477e-01 9.779810478445930544e-01 2.929411443856460018e-01
-9.948376736367678941e-01 -5.485440845628479778e-01 9.164974711419839881e-01 2.789156175879469735e-01
-9.424777960769379348e-01 -5.921587837907850149e-01 8.512367107048519621e-01 2.649136003344599866e-01
-8.901179185171080865e-01 -6.346546545055760102e-01 7.842956712498520000e-01 2.509916429983949926e-01
-8.377580409572782383e-01 -6.759027569813429448e-01 7.160076751819479668e-01 2.371788099907309877e-01
-7.853981633974482790e-01 -7.154505433190320174e-01 6.467492369066829561e-01 2.235783125168460117e-01
-7.330382858376184307e-01 -7.472126355814799892e-01 5.776834208629250123e-01 2.099778284509239978e-01
-6.806784082777884715e-01 -7.813390844630470067e-01 5.093784427910810209e-01 1.819147836560290055e-01
-6.283185307179586232e-01 -8.183260295724990030e-01 4.421733337577580247e-01 1.344687357126430061e-01
-5.759586531581287749e-01 -8.616667306863270426e-01 3.778898462480250187e-01 8.518990487934040290e-02
-5.235987755982988157e-01 -9.774075211523940432e-01 2.879145908384910246e-01 5.578593235214600321e-02
-5.130210225559090897e-01 -1.008334104608030080e+00 2.669000143375639955e-01 5.187502532299070185e-02
-5.024432695135193638e-01 -1.039445856298579995e+00 2.457124277503489884e-01 4.796461318536059809e-02
-4.918655164711295824e-01 -1.070759839518059975e+00 2.242972966104999910e-01 4.405609370240660266e-02
-4.812877634287397455e-01 -1.079772481761350100e+00 2.114540694017849887e-01 4.054589111890050113e-02
-4.707100103863500196e-01 -1.078937140839989928e+00 2.024111924697440112e-01 3.721460359157210268e-02
-4.601322573439602381e-01 -1.078077689040719989e+00 1.933563998280689866e-01 3.390919000686579837e-02
-4.495545043015704567e-01 -1.077718701765969955e+00 1.842309422801579888e-01 3.055025650215140165e-02
-4.389767512591789544e-01 -1.077485001372679996e+00 1.750974329342170066e-01 2.718440608366730002e-02
-4.283989982167891730e-01 -1.077834415707229931e+00 1.659549234706199916e-01 2.381777717789470075e-02
-4.178212451743993916e-01 -1.078523059333990064e+00 1.569135965685140022e-01 2.053402520777740034e-02
-4.072434921320096657e-01 -1.080413220735370050e+00 1.488573642411379905e-01 1.800437378473400060e-02
-3.966657390896198843e-01 -1.082767453325540030e+00 1.407720309456670094e-01 1.547425542862989993e-02
-3.860879860472301028e-01 -1.085783546316269943e+00 1.326381879867210012e-01 1.294321914437360048e-02
-3.755102330048403769e-01 -1.089790299551010033e+00 1.244142334679090023e-01 1.040995735360799972e-02
-3.649324799624505400e-01 -1.091846374729990021e+00 1.162208154006429961e-01 7.868433522231200322e-03
-3.543547269200608141e-01 -1.093583400800949956e+00 1.082177434514230013e-01 5.344952167755920303e-03
-3.437769738776710327e-01 -1.095015274770110070e+00 1.009838856383649952e-01 3.486798201776730027e-03
-3.331992208352812512e-01 -1.096141996591430079e+00 9.451924207749110018e-02 2.282082915109659872e-03
-3.226214677928914698e-01 -1.097268718412750088e+00 8.805459851661749660e-02 1.080965029999189902e-03
-3.120437147505017439e-01 -1.097857152594510000e+00 8.176235621714089685e-02 -2.024168178733740181e-06
-3.014659617081119070e-01 -1.096292435761309969e+00 7.615971910952279433e-02 -6.065128244235970132e-04
-2.908882086657221810e-01 -1.094727718928109939e+00 7.055708200190480284e-02 -1.216907955784539983e-03
-2.803104556233323996e-01 -1.093163002094909908e+00 6.495444489428670032e-02 -1.832489036354759994e-03
-2.697327025809426182e-01 -1.096133744898919904e+00 5.970888352662009901e-02 -1.757970958510899967e-03
-2.591549495385511159e-01 -1.099608427831539892e+00 5.450299725446879767e-02 -1.607459095920560008e-03
-2.485771964961613345e-01 -1.104416928607399928e+00 4.929711098231750327e-02 -1.457773254513220059e-03
-2.379994434537715531e-01 -1.104355069980460069e+00 4.446384422277849940e-02 -2.007377774428649973e-03
-2.274216904113817994e-01 -1.100773973805849959e+00 3.979370431699869731e-02 -3.022853803894329835e-03
-2.168439373689920457e-01 -1.096753663402320056e+00 3.515702442837759928e-02 -4.188007506207129700e-03
-2.062661843266022643e-01 -1.077685447015299891e+00 3.101744922900050161e-02 -6.931532981952930224e-03
-1.956884312842125107e-01 -1.025485765090490053e+00 2.801369184022330094e-02 -1.364744111789559927e-02
-1.851106782418227292e-01 -9.731979538191010137e-01 2.502778752836410173e-02 -2.028462838741919988e-02
-1.745329251994329478e-01 -9.198714970170309702e-01 2.206025171717760150e-02 -2.692153937364700003e-02
-1.639551721570429998e-01 -8.519480343335800177e-01 2.046381765875850134e-02 -3.244429584371050224e-02
-1.533774191146532462e-01 -7.834630948430200137e-01 1.888509485750640080e-02 -3.778504870709020053e-02
-1.427996660722632982e-01 -7.149181962869129991e-01 1.728364126947659965e-02 -4.309729453185800335e-02
-1.322219130298735168e-01 -6.419381432723110237e-01 1.608929275843780024e-02 -4.804626158379370071e-02
-1.216441599874835688e-01 -5.688496399342559684e-01 1.507318457762129964e-02 -5.278903402384740179e-02
-1.110664069450936348e-01 -4.956064468726300021e-01 1.405705049845260013e-02 -5.750047208594200043e-02
-1.004886539027038533e-01 -4.181756383435720204e-01 1.324244635967940058e-02 -6.231435033520119765e-02
-8.991090086031391926e-02 -3.345577218700500066e-01 1.273017672538770059e-02 -6.733117593826309921e-02
-7.933314781792397130e-02 -2.509346340032559963e-01 1.221792580299790008e-02 -7.234976413783909821e-02
-6.875539477553420376e-02 -1.671631960872450029e-01 1.173473702231709985e-02 -7.729557106871870475e-02
-5.817764173314425580e-02 -8.211402385905169909e-02 1.151290964289890077e-02 -8.154606957785009991e-02
-4.759988869075449519e-02 2.944404818828719964e-03 1.129109124847599982e-02 -8.582086149797610308e-02
-3.702213564836454723e-02 8.802840213406769310e-02 1.106928306957279985e-02 -9.010316631144910104e-02
-2.644438260597477622e-02 1.718370870804989958e-01 1.095654258473830085e-02 -9.381750692306070616e-02
-1.586662956358486296e-02 2.541595096205189752e-01 1.088086830631409922e-02 -9.735016291098060048e-02
-5.288876521194919335e-03 3.358141922762180043e-01 1.086070987892390032e-02 -1.005858219496660044e-01
5.288876521194919335e-03 4.172572727709549789e-01 1.086922367013190040e-02 -1.036671539071870041e-01
1.586662956358486296e-02 4.983067996120790211e-01 1.090640845840369980e-02 -1.065942287161440044e-01
2.644438260597477622e-02 5.785697404431250357e-01 1.098476018055159938e-02 -1.093045859480930027e-01
3.702213564836454723e-02 6.585239728252060276e-01 1.107859339205509962e-02 -1.119306575724030028e-01
4.759988869075449519e-02 7.377778891920869775e-01 1.120528204700559950e-02 -1.143725033412759939e-01
5.817764173314425580e-02 8.165371895798300139e-01 1.135455991021879982e-02 -1.167025339405289991e-01
6.875539477553420376e-02 8.948916409791030091e-01 1.152232501892009979e-02 -1.189410919480909934e-01
7.933314781792415171e-02 9.723263352668589654e-01 1.173035557118179938e-02 -1.210016284432479938e-01
8.991090086031391926e-02 1.049295281112089917e+00 1.196215974629930012e-02 -1.229841648387350050e-01
1.004886539027038533e-01 1.125171534732299916e+00 1.225200493324229978e-02 -1.247919303272359975e-01
1.110664069450938152e-01 1.200304853982580022e+00 1.256684771759639975e-02 -1.264650707044970013e-01
1.216441599874835688e-01 1.274940756759840088e+00 1.289820675646190067e-02 -1.280484580990340071e-01
1.322219130298733503e-01 1.347803218269620018e+00 1.330330420407859968e-02 -1.293741139467979862e-01
1.427996660722632982e-01 1.419876671159409964e+00 1.373810988985059954e-02 -1.305881051169769935e-01
1.533774191146532462e-01 1.490324676560129902e+00 1.423291222617890060e-02 -1.315731073154320085e-01
1.639551721570429998e-01 1.558554605032530072e+00 1.481214948806809997e-02 -1.322741515734089934e-01
1.745329251994329478e-01 1.625593861428829889e+00 1.543709741925259997e-02 -1.328224716145320061e-01
1.851106782418227292e-01 1.688102934814420086e+00 1.624143514440129846e-02 -1.328284286771629907e-01
1.956884312842125107e-01 1.748421774985410071e+00 1.714576525157129883e-02 -1.326163955547030038e-01
2.062661843266022643e-01 1.804681453574370043e+00 1.823593532949430163e-02 -1.319993236701509920e-01
2.168439373689920457e-01 1.854830347252909961e+00 1.965913145336210116e-02 -1.308972732574660014e-01
2.274216904113817994e-01 1.901922866432159909e+00 2.126441381431970132e-02 -1.295527943491749934e-01
2.379994434537715531e-01 1.937911710554200084e+00 2.356692426916200123e-02 -1.275612053615360064e-01
2.485771964961613345e-01 1.963992778055990041e+00 2.674457004856660089e-02 -1.251103746341669931e-01
2.591549495385511159e-01 1.972606597271129969e+00 3.117111680593409942e-02 -1.219261929537060057e-01
2.697327025809426182e-01 1.969937076463950110e+00 3.658322893771970286e-02 -1.192794112942820034e-01
2.803104556233323996e-01 1.959930828900440014e+00 4.261785438783240176e-02 -1.169254794344290055e-01
2.908882086657221810e-01 1.926291655869099895e+00 5.095568151090609788e-02 -1.154366024316979961e-01
3.014659617081119070e-01 1.893014942809329915e+00 5.929350863398000215e-02 -1.139525242494520002e-01
3.120437147505017439e-01 1.859913969986479954e+00 6.763133575705379541e-02 -1.124735128765349951e-01
3.226214677928914698e-01 1.807470778518740051e+00 7.872882584888739321e-02 -1.126985436947459951e-01
3.331992208352812512e-01 1.750292147201939930e+00 9.051623153657449572e-02 -1.133499282394769964e-01
3.437769738776710327e-01 1.693233853446219905e+00 1.023036372242620007e-01 -1.140053761280860056e-01
3.543547269200608141e-01 1.645589481209889904e+00 1.147220570412609969e-01 -1.160307977162609999e-01
3.649324799624505400e-01 1.607326232072630035e+00 1.277714908923940074e-01 -1.194196579645180056e-01
3.755102330048403769e-01 1.569139992004870088e+00 1.408209247435270040e-01 -1.228080924145549951e-01
3.860879860472301028e-01 1.531042250873799970e+00 1.538703585946609997e-01 -1.261960402942700066e-01
3.966657390896198843e-01 1.493046903915060009e+00 1.669197924457939963e-01 -1.295834288105280063e-01
4.072434921320096657e-01 1.455170915940849907e+00 1.799692262969269929e-01 -1.329701700889009963e-01
4.178212451743993916e-01 1.417435218507600014e+00 1.933358200521929915e-01 -1.363561571777180126e-01
4.283989982167891730e-01 1.400108470525690096e+00 2.057906668863780097e-01 -1.399818057653960113e-01
4.389767512591789544e-01 1.385411034974439959e+00 2.181446528490350034e-01 -1.436315049643900055e-01
4.495545043015704567e-01 1.371549555778619922e+00 2.304942782637839915e-01 -1.472778952658559959e-01
4.601322573439602381e-01 1.358390460200860073e+00 2.428388963547510049e-01 -1.509202747317839877e-01
4.707100103863500196e-01 1.346569444206280108e+00 2.549706346637229948e-01 -1.545577428924020114e-01
4.812877634287397455e-01 1.334194620561429900e+00 2.671780728875050026e-01 -1.581891231688259958e-01
4.918655164711295824e-01 1.322186614718090070e+00 2.794502038475579764e-01 -1.617968826738019894e-01
5.024432695135193638e-01 1.311726331929139899e+00 2.917098412525149786e-01 -1.653694717785700041e-01
5.130210225559090897e-01 1.301413222265340064e+00 3.039461506092179799e-01 -1.689509521414229998e-01
5.235987755982988157e-01 1.291244536120959907e+00 3.161693321612309981e-01 -1.725428534604259989e-01
5.759586531581287749e-01 1.237410365137219914e+00 3.778898462480250187e-01 -1.905049039715890069e-01
6.283185307179586232e-01 1.174714403744570035e+00 4.421733337577580247e-01 -2.082565063568179997e-01
6.806784082777884715e-01 1.120539370580649896e+00 5.093784427910820201e-01 -2.256836924700119928e-01
7.330382858376184307e-01 1.069894894536169927e+00 5.776834208629260115e-01 -2.404714585471950106e-01
7.853981633974482790e-01 1.022072204741470092e+00 6.467492369066829561e-01 -2.532918875637549805e-01
8.377580409572782383e-01 9.655753671162039531e-01 7.160076751819479668e-01 -2.661123601975560193e-01
8.901179185171080865e-01 9.066495064365369672e-01 7.842956712498520000e-01 -2.782540522683720208e-01
9.424777960769379348e-01 8.459411197011209582e-01 8.512367107048519621e-01 -2.900468947569849743e-01
9.948376736367678941e-01 7.836344065183540319e-01 9.164974711419849873e-01 -3.015836062560169895e-01
1.047197551196597631e+00 7.183931445712620212e-01 9.779810478445930544e-01 -3.130413438649630176e-01
1.099557428756427591e+00 6.511038878089899784e-01 1.035971886555500099e+00 -3.243253365742719829e-01
1.151917306316257550e+00 5.820179881010929535e-01 1.090387138647789911e+00 -3.355224576642409917e-01
1.204277183876087287e+00 5.110022054789810086e-01 1.140229367837030106e+00 -3.467195795811859882e-01
1.256637061435917246e+00 4.381422688334999926e-01 1.183347974860099905e+00 -3.573555479123259881e-01
1.308996938995747206e+00 3.644908339009340081e-01 1.221408512079970032e+00 -3.678647697810120132e-01
1.361356816555576943e+00 2.902882866088870029e-01 1.254227760757770094e+00 -3.782242895604799870e-01
1.413716694115406902e+00 2.160378453361530005e-01 1.279328267714820111e+00 -3.880951198662510038e-01
1.466076571675236861e+00 1.426822289479479922e-01 1.297177629520450015e+00 -3.973319039828099863e-01
1.518436449235066599e+00 7.056341660989490228e-02 1.309016144790859926e+00 -4.063533494508529964e-01
1.570796326794896558e+00 2.764102594972820167e-10 1.314769264758169909e+00 -4.153737907851369759e-01
1.623156204354726517e+00 -4.939439192307740201e-02 1.309016144756369959e+00 -4.201702584531730178e-01
1.675516081914556477e+00 -9.987756040181999806e-02 1.297177629478329930e+00 -4.249657214786620174e-01
1.727875959474386214e+00 -1.512264913281129997e-01 1.279328267911469919e+00 -4.292171765238029790e-01
1.780235837034216173e+00 -2.032018002190260075e-01 1.254227760954419901e+00 -4.317302567786999723e-01
1.832595714594046132e+00 -2.551435839394339822e-01 1.221408511942869923e+00 -4.328631470807550174e-01
1.884955592153875870e+00 -3.066995884226980107e-01 1.183347974661679958e+00 -4.335676694080479732e-01
1.937315469713705829e+00 -3.577015435113110042e-01 1.140229368161860046e+00 -4.338638598384029765e-01
1.989675347273535788e+00 -4.074125920342929752e-01 1.090387138283299917e+00 -4.323523699264170128e-01
2.042035224833365525e+00 -4.557727215325539927e-01 1.035971886477569992e+00 -4.308402443939379767e-01
2.094395102393195263e+00 -5.028752010526359451e-01 9.779810480428390296e-01 -4.294655325738219731e-01
2.146754979953025444e+00 -5.485440850472189656e-01 9.164974704899110369e-01 -4.283591527689569745e-01
2.199114857512855181e+00 -5.921587837077809668e-01 8.512367108296799989e-01 -4.275848763400509900e-01
2.251474735072684918e+00 -6.346546541781959982e-01 7.842956717830560365e-01 -4.279800168019459727e-01
2.303834612632515100e+00 -6.759027567729120056e-01 7.160076755420959893e-01 -4.299280390819010256e-01
2.356194490192344837e+00 -7.154505436570429699e-01 6.467492363089849539e-01 -4.349036839488559791e-01
2.408554367752174574e+00 -7.545358464400260257e-01 5.776834208581980157e-01 -4.399358951420980213e-01
2.460914245312004756e+00 -7.945652097426939564e-01 5.093784429195340469e-01 -4.467933353628320003e-01
2.513274122871834493e+00 -8.360281512425370432e-01 4.421733330760029834e-01 -4.558714099558390243e-01
2.565634000431664230e+00 -8.823899628970119924e-01 3.778898464553039904e-01 -4.653329102264779915e-01
2.617993877991494411e+00 -8.417473414830789480e-01 3.157823185943879896e-01 -4.722653825425849883e-01
2.670353755551324149e+00 -7.575726072399550093e-01 2.577652889468740049e-01 -4.529065711827530150e-01
2.722713633111153886e+00 -6.733978729968309596e-01 2.040857994194550107e-01 -4.309222175477079864e-01
2.775073510670984067e+00 -5.892231387537060217e-01 1.549612950685549939e-01 -4.089445082303400092e-01
2.827433388230813804e+00 -5.050484045105829711e-01 1.112172538026500040e-01 -4.212960769287950047e-01
2.879793265790643542e+00 -4.208736702674589769e-01 7.349006566395580031e-02 -4.508100481630110123e-01
