# Angle of attack [rad] 	 Lift coefficient [-] 	 Drag coefficient [-] 	 Moment coefficient [-]
-3.141592653589793116e+00 0.000000000000000000e+00 7.379561999877859435e-02 0.000000000000000000e+00
-3.089232776029963379e+00 1.284388542702279978e-01 7.401780794300599764e-02 9.895713411546119831e-02
-3.036872898470133197e+00 2.582415938143650114e-01 7.461819629532259746e-02 1.988122100161530126e-01
-2.984513020910303460e+00 3.880443421742150178e-01 7.561297450108329932e-02 2.986667208459449774e-01
-2.932153143350473723e+00 5.175577968046159993e-01 8.392099429272900646e-02 3.276978729886450004e-01
-2.879793265790643542e+00 6.469255313299789867e-01 9.830785997019829414e-02 3.211555076079489757e-01
-2.827433388230813804e+00 7.762942477589810375e-01 1.168006158441950021e-01 3.144428952692929768e-01
-2.775073510670984067e+00 8.732077374017139793e-01 1.445428345249790136e-01 3.091767011271580046e-01
-2.722713633111153886e+00 9.050517756139400127e-01 1.941866250478939959e-01 3.068564138424190180e-01
-2.670353755551324149e+00 9.363987891373120043e-01 2.442678155672330098e-01 3.042986265783220179e-01
-2.617993877991494411e+00 9.664416000659119543e-01 2.947646655860480247e-01 3.011881913650509834e-01
-2.565634000431664230e+00 9.311761668692589700e-01 3.563802817851879912e-01 2.836242926738389847e-01
-2.513274122871834493e+00 8.733731983460230053e-01 4.202136463555070089e-01 2.655337174134210221e-01
-2.460914245312004756e+00 8.174262625380239733e-01 4.832513934617039819e-01 2.473362586849829903e-01
-2.408554367752174574e+00 7.676822248352810352e-01 5.486984581502309943e-01 2.383236329854589997e-01
-2.356194490192344837e+00 7.212208971235219979e-01 6.153574018554629488e-01 2.340289242676960035e-01
-2.303834612632515100e+00 6.750843251650630039e-01 6.819862594559099600e-01 2.297370877479789908e-01
-2.251474735072684918e+00 6.289729862200139632e-01 7.475361097683810296e-01 2.277242627038049971e-01
-2.199114857512855181e+00 5.827882420927009699e-01 8.111235788938789826e-01 2.295537368407450096e-01
-2.146754979953025444e+00 5.364845817853269860e-01 8.743060531106190414e-01 2.315607579996069865e-01
-2.094395102393195263e+00 4.899053172720619909e-01 9.365553122991590040e-01 2.336216741684750131e-01
-2.042035224833365525e+00 4.411057333032519789e-01 9.900878105332939771e-01 2.372583894075609989e-01
-1.989675347273535788e+00 3.921265143544699905e-01 1.042745725338950047e+00 2.409517953182090111e-01
-1.937315469713705829e+00 3.429580225081110267e-01 1.094256122553830091e+00 2.446400052524559943e-01
-1.884955592153875870e+00 2.930246476908879849e-01 1.135957422534100036e+00 2.474004509326120094e-01
-1.832595714594046132e+00 2.427540492815929984e-01 1.172336433779989973e+00 2.497295771238569884e-01
-1.780235837034216173e+00 1.924904170610640119e-01 1.207372656532349930e+00 2.520171161524870085e-01
-1.727875959474386214e+00 1.429837126829109906e-01 1.235413508743550048e+00 2.531600594520649894e-01
-1.675516081914556477e+00 9.499860726033609870e-02 1.251655060095530070e+00 2.521269520120980046e-01
-1.623156204354726517e+00 4.731168060745440107e-02 1.266309243383930028e+00 2.510363959652009980e-01
-1.570796326794896558e+00 -2.951953197053600049e-06 1.279280818932780006e+00 2.499442148383410056e-01
-1.518436449235066599e+00 -4.731478452525479661e-02 1.266308287135970101e+00 2.423528276136759918e-01
-1.466076571675236861e+00 -9.499988097050429681e-02 1.251654762141819921e+00 2.347592339143340090e-01
-1.413716694115406902e+00 -1.429831012834829884e-01 1.235413874144269952e+00 2.271190652063080073e-01
-1.361356816555576943e+00 -1.924890600733940027e-01 1.207374003376969984e+00 2.177254547388799977e-01
-1.308996938995747206e+00 -2.427526945014280013e-01 1.172337789846570111e+00 2.074080307364949971e-01
-1.256637061435917246e+00 -2.930232953281849961e-01 1.135958779626399906e+00 1.970546767409979971e-01
-1.204277183876087287e+00 -3.429497880319969938e-01 1.094257353177779946e+00 1.864400088193740035e-01
-1.151917306316257550e+00 -3.920974429595550093e-01 1.042744714648619953e+00 1.752588834540980134e-01
-1.099557428756427591e+00 -4.410558414686869821e-01 9.900845369762569792e-01 1.640676301506500123e-01
-1.047197551196597631e+00 -4.898346046683709765e-01 9.365494216940869476e-01 1.528765779669679914e-01
-9.948376736367678941e-01 -5.364345257934589606e-01 8.743020913619260481e-01 1.424512842631709963e-01
-9.424777960769379348e-01 -5.827591333641759519e-01 8.111223434837580015e-01 1.320158205214889968e-01
-8.901179185171080865e-01 -6.289648116711089587e-01 7.475376340443440348e-01 1.215784546832300028e-01
-8.377580409572782383e-01 -6.750831134902269826e-01 6.819888530569869767e-01 1.124903937042539964e-01
-7.853981633974482790e-01 -7.212196763159439694e-01 6.153600289283820413e-01 1.040961188769670004e-01
-7.330382858376184307e-01 -8.051810117724930160e-01 5.487011364591219964e-01 9.569617249363800149e-02
-6.806784082777884715e-01 -8.924246134172190148e-01 4.832539613996689742e-01 8.592033085053789321e-02
-6.283185307179586232e-01 -9.858714897578559899e-01 4.202163262623889728e-01 7.401875845194939851e-02
-5.759586531581287749e-01 -1.081174472584730095e+00 3.563833159698089892e-01 6.100162122463000103e-02
-5.235987755982988157e-01 -1.177794171391469913e+00 2.897899878086149794e-01 5.137144300560100157e-02
-5.130210225559090897e-01 -1.190628357688209960e+00 2.785698302580589814e-01 4.783092280145859881e-02
-5.024432695135193638e-01 -1.203683742537110080e+00 2.677163437881590058e-01 4.429040259731609891e-02
-4.918655164711295824e-01 -1.216800786219770059e+00 2.569629708314399852e-01 4.074988239317359900e-02
-4.812877634287397455e-01 -1.226692960966879964e+00 2.475777078018709942e-01 3.724657385665799958e-02
-4.707100103863500196e-01 -1.235244385671089962e+00 2.387872998673279956e-01 3.375921317452640347e-02
-4.601322573439602381e-01 -1.243834468342220001e+00 2.302117994477169971e-01 3.027185249239490103e-02
-4.495545043015704567e-01 -1.252448256699240092e+00 2.216503323191620078e-01 2.678449181026339859e-02
-4.389767512591789544e-01 -1.261071167330630072e+00 2.130953404003129992e-01 2.329713112813179901e-02
-4.283989982167891730e-01 -1.264006999535379983e+00 2.045465101634920124e-01 1.980977044600030004e-02
-4.178212451743993916e-01 -1.264990089305620069e+00 1.960027151634420040e-01 1.632818117499040128e-02
-4.072434921320096657e-01 -1.265564614887850103e+00 1.874686558530500036e-01 1.289853463019129988e-02
-3.966657390896198843e-01 -1.266054623370800103e+00 1.789603789864289973e-01 9.468888085392219295e-03
-3.860879860472301028e-01 -1.266449591795880014e+00 1.704767766357009884e-01 6.039241540593119628e-03
-3.755102330048403769e-01 -1.268009539262789920e+00 1.620168019659229963e-01 2.644494030736590194e-03
-3.649324799624505400e-01 -1.270279610141060056e+00 1.535794647927530010e-01 -9.388512338990420486e-04
-3.543547269200608141e-01 -1.272549681019339962e+00 1.451638274506570070e-01 -4.443337721045960247e-03
-3.437769738776710327e-01 -1.267827572130659997e+00 1.380742774707950093e-01 -8.808065754471390216e-03
-3.331992208352812512e-01 -1.246551874767009904e+00 1.345887137289500102e-01 -1.008838958670489963e-02
-3.226214677928914698e-01 -1.244380927130390058e+00 1.293243128007600107e-01 -1.143231132195419997e-02
-3.120437147505017439e-01 -1.226249414056900022e+00 1.255761646716790081e-01 -1.263224223476440075e-02
-3.014659617081119070e-01 -1.199098888813769914e+00 1.210878711390750012e-01 -1.368300228662520067e-02
-2.908882086657221810e-01 -1.170069509278770070e+00 1.166450832260499948e-01 -1.466105534877520065e-02
-2.803104556233323996e-01 -1.133234613238849997e+00 1.131280530811190066e-01 -1.556660644738130060e-02
-2.697327025809426182e-01 -1.103191166234539944e+00 1.089746717760260025e-01 -1.630319160409689910e-02
-2.591549495385511159e-01 -1.070987684510819937e+00 1.051291900593370049e-01 -1.702037839399229979e-02
-2.485771964961613345e-01 -1.034216972367749898e+00 1.017703842540959996e-01 -1.762181276114090089e-02
-2.379994434537715531e-01 -9.989223833522939966e-01 9.836123501982910189e-02 -1.827555406274609939e-02
-2.274216904113817994e-01 -9.669431800457769510e-01 9.476420482387259980e-02 -1.856101733398090106e-02
-2.168439373689920457e-01 -9.266571704436109558e-01 9.194110723692479337e-02 -1.912240037451920158e-02
-2.062661843266022643e-01 -8.919168720262290462e-01 8.872293229684649618e-02 -1.942753226366570121e-02
-1.956884312842125107e-01 -8.549580335271099729e-01 8.600661680230070605e-02 -1.953168319257880120e-02
-1.851106782418227292e-01 -8.232918610875169518e-01 8.277392850837179961e-02 -1.893609151275500030e-02
-1.745329251994329478e-01 -7.927942907239130532e-01 7.989242954006180175e-02 -1.757607684073300008e-02
-1.639551721570429998e-01 -7.367862277176310259e-01 7.789447280185810008e-02 -2.078637708404600104e-02
-1.533774191146532462e-01 -6.745328466072509910e-01 7.598399388646530361e-02 -2.588040042600309870e-02
-1.427996660722632982e-01 -6.056490851994139613e-01 7.427360399166020588e-02 -3.205114446914839738e-02
-1.322219130298735168e-01 -5.311994679771719907e-01 7.316197939636230607e-02 -3.832210011205910288e-02
-1.216441599874835688e-01 -4.530808301666979787e-01 7.217123552848070389e-02 -4.501185828785630311e-02
-1.110664069450936348e-01 -3.732569766255550148e-01 7.120990397788690141e-02 -5.197460778470940068e-02
-1.004886539027038533e-01 -2.943660501641049976e-01 7.055274866963559544e-02 -5.804112786880930019e-02
-8.991090086031391926e-02 -2.130442032590950108e-01 6.995321531387270475e-02 -6.462440677631410557e-02
-7.933314781792397130e-02 -1.325449338604759997e-01 6.943882974074229442e-02 -7.051566365864650465e-02
-6.875539477553420376e-02 -5.304715310491649877e-02 6.902022387069629838e-02 -7.565412820113399939e-02
-5.817764173314425580e-02 2.578313628970969884e-02 6.877323727962779409e-02 -8.028187153601630544e-02
-4.759988869075449519e-02 9.980892311105990511e-02 6.867310489032900367e-02 -8.404042397732010283e-02
-3.702213564836454723e-02 1.736705876250919933e-01 6.857291390328690284e-02 -8.829289750498009459e-02
-2.644438260597477622e-02 2.470945922271350070e-01 6.843702384456840093e-02 -9.239681892774090355e-02
-1.586662956358486296e-02 3.224044427170980054e-01 6.848408977639340589e-02 -9.622400145419500450e-02
-5.288876521194919335e-03 3.978781201064219841e-01 6.846751318746430170e-02 -9.968716340739409987e-02
5.288876521194919335e-03 4.746174103680709799e-01 6.854302089069010118e-02 -1.031017030157049957e-01
1.586662956358486296e-02 5.523065779603020253e-01 6.861601577124190610e-02 -1.064043022335779964e-01
2.644438260597477622e-02 6.298404034129679863e-01 6.872686879354659995e-02 -1.095114875671740068e-01
3.702213564836454723e-02 7.064507823226879868e-01 6.883647531722529578e-02 -1.125418745525050002e-01
4.759988869075449519e-02 7.827807406758789943e-01 6.900406477651579995e-02 -1.151952053899740064e-01
5.817764173314425580e-02 8.584588184996529980e-01 6.924099412405139431e-02 -1.178549527521400020e-01
6.875539477553420376e-02 9.337725298742179936e-01 6.937164486629320004e-02 -1.202779074782669988e-01
7.933314781792415171e-02 1.008202839674910090e+00 6.963486394461400331e-02 -1.226055234512510028e-01
8.991090086031391926e-02 1.082297075018809895e+00 6.991894848862280354e-02 -1.246786743182339979e-01
1.004886539027038533e-01 1.155508270608420096e+00 7.013223056783410292e-02 -1.265901283841779912e-01
1.110664069450938152e-01 1.227814931524600084e+00 7.052583719780540494e-02 -1.282868389943520038e-01
1.216441599874835688e-01 1.299658950446040073e+00 7.084384872565099855e-02 -1.298019063098999892e-01
1.322219130298733503e-01 1.370180992728329938e+00 7.122531965192080428e-02 -1.311177176283890022e-01
1.427996660722632982e-01 1.438933168910520033e+00 7.172540588939910200e-02 -1.319738237470670095e-01
1.533774191146532462e-01 1.507001126597780072e+00 7.221242802128090277e-02 -1.327288928095330112e-01
1.639551721570429998e-01 1.571077366977410072e+00 7.283776957858739687e-02 -1.329945039005130114e-01
1.745329251994329478e-01 1.630508411271609948e+00 7.351963431905129964e-02 -1.326712235173859999e-01
1.851106782418227292e-01 1.687249047334000052e+00 7.443379590226879838e-02 -1.320173297840820104e-01
1.956884312842125107e-01 1.734773685338409921e+00 7.559705362253230088e-02 -1.292751780948090123e-01
2.062661843266022643e-01 1.774339411454499915e+00 7.736505154172579335e-02 -1.258825972341509891e-01
2.168439373689920457e-01 1.812646245715189952e+00 7.956404386465179557e-02 -1.229070039654339974e-01
2.274216904113817994e-01 1.852300115277129899e+00 8.194810164368450389e-02 -1.207583443685300018e-01
2.379994434537715531e-01 1.887362064812879936e+00 8.484154487214490281e-02 -1.185864169252270062e-01
2.485771964961613345e-01 1.918990846868440014e+00 8.836272914666730427e-02 -1.164051668640559978e-01
2.591549495385511159e-01 1.952899006561229944e+00 9.180870862702769641e-02 -1.148358950082380009e-01
2.697327025809426182e-01 1.982152464877009912e+00 9.588836885752609340e-02 -1.133076822382009935e-01
2.803104556233323996e-01 2.004585454379050002e+00 1.008956847136600055e-01 -1.116734585769350030e-01
2.908882086657221810e-01 2.017698422177629958e+00 1.072684620151290041e-01 -1.103066397827379974e-01
3.014659617081119070e-01 2.015660845465879980e+00 1.134943191750270031e-01 -1.092847715152950039e-01
3.120437147505017439e-01 1.990630899217959993e+00 1.211778554916480011e-01 -1.082768623061869939e-01
3.226214677928914698e-01 1.965551443407310028e+00 1.293973127500079867e-01 -1.078340754247260058e-01
3.331992208352812512e-01 1.945351435718309929e+00 1.373880701102629942e-01 -1.078816684152909960e-01
3.437769738776710327e-01 1.922935092839169968e+00 1.456614686115809965e-01 -1.082626969496969932e-01
3.543547269200608141e-01 1.899925000409919962e+00 1.541761715073300121e-01 -1.095413327221499977e-01
3.649324799624505400e-01 1.878029590227989987e+00 1.626907287661999990e-01 -1.111956941028279938e-01
3.755102330048403769e-01 1.859943016862360077e+00 1.708997570550979950e-01 -1.132153823367469947e-01
3.860879860472301028e-01 1.847455515438759965e+00 1.786252490782319902e-01 -1.156523200680130009e-01
3.966657390896198843e-01 1.838755608294069921e+00 1.857473972865290035e-01 -1.184482034968190045e-01
4.072434921320096657e-01 1.831100352786839913e+00 1.924772442394669936e-01 -1.213723671742479998e-01
4.178212451743993916e-01 1.823584518430009904e+00 1.991562570926939946e-01 -1.246677089136229988e-01
4.283989982167891730e-01 1.811630632877829994e+00 2.072885193395649917e-01 -1.290417619111219882e-01
4.389767512591789544e-01 1.790698510276979905e+00 2.172327861182649922e-01 -1.344005061622089992e-01
4.495545043015704567e-01 1.761897109378719906e+00 2.277919067808409914e-01 -1.400994117441949904e-01
4.601322573439602381e-01 1.732888643637600090e+00 2.384768229091870084e-01 -1.457693651354809994e-01
4.707100103863500196e-01 1.704016654625049920e+00 2.490770637800809872e-01 -1.514095141831549862e-01
4.812877634287397455e-01 1.675233427783439977e+00 2.596433514518100005e-01 -1.569884290662059978e-01
4.918655164711295824e-01 1.648359059503800017e+00 2.702092209861809979e-01 -1.625050452214480134e-01
5.024432695135193638e-01 1.623566065222100008e+00 2.807721549052449861e-01 -1.680098574693719982e-01
5.130210225559090897e-01 1.599552814956799907e+00 2.914609925788300138e-01 -1.735419813709379866e-01
5.235987755982988157e-01 1.578344209557229982e+00 3.030587171535200075e-01 -1.772586176862230023e-01
5.759586531581287749e-01 1.472865714237340029e+00 3.634952350096959939e-01 -1.924222917150510137e-01
6.283185307179586232e-01 1.354137332566540008e+00 4.253640769159610091e-01 -2.076419299158979992e-01
6.806784082777884715e-01 1.237963608023209927e+00 4.872004374878279864e-01 -2.227564930586989900e-01
7.330382858376184307e-01 1.131327304447329984e+00 5.517465011373510198e-01 -2.341504792198620122e-01
7.853981633974482790e-01 1.028569459876619963e+00 6.172306993539059539e-01 -2.439513240388760107e-01
8.377580409572782383e-01 9.637466045066650500e-01 6.827407301897620018e-01 -2.537011678191110065e-01
8.901179185171080865e-01 8.985335790927450050e-01 7.475376340443440348e-01 -2.633681092821930081e-01
9.424777960769379348e-01 8.325647523497570202e-01 8.111223434837580015e-01 -2.727887767398369800e-01
9.948376736367678941e-01 7.664260473245719796e-01 8.743020913619270473e-01 -2.821600525223649791e-01
1.047197551196597631e+00 6.998938351205880037e-01 9.365494216940869476e-01 -2.915331807213170090e-01
1.099557428756427591e+00 6.301773395569539860e-01 9.900845369762569792e-01 -3.012980650226340096e-01
1.151917306316257550e+00 5.602040470396609795e-01 1.042744714648619953e+00 -3.109623836506649752e-01
1.204277183876087287e+00 4.899603213994450090e-01 1.094257353177779946e+00 -3.206350483208419977e-01
1.256637061435917246e+00 4.186280246339950106e-01 1.135958779626399906e+00 -3.303083931051389865e-01
1.308996938995747206e+00 3.468161475135470018e-01 1.172337789846570111e+00 -3.399962211822890046e-01
1.361356816555576943e+00 2.750142207653220039e-01 1.207374003376969984e+00 -3.496637815797459803e-01
1.413716694115406902e+00 2.042902926406710007e-01 1.235413874144269952e+00 -3.589630329096900052e-01
1.466076571675236861e+00 1.357329798928059994e-01 1.251654762141819921e+00 -3.675988992449529813e-01
1.518436449235066599e+00 6.760177143285789336e-02 1.266308287135970101e+00 -3.761955301621999759e-01
1.570796326794896558e+00 3.336514512070500107e-06 1.279280818932780006e+00 -3.847930269349419952e-01
1.623156204354726517e+00 -4.731192269949090201e-02 1.266309243383930028e+00 -3.881628783611659750e-01
1.675516081914556477e+00 -9.499898095701990453e-02 1.251655060095530070e+00 -3.915313401197449972e-01
1.727875959474386214e+00 -1.429842201687940018e-01 1.235413508743550048e+00 -3.947828507195970116e-01
1.780235837034216173e+00 -1.924909569040690049e-01 1.207372656532349930e+00 -3.958829628226879782e-01
1.832595714594046132e+00 -2.427545919271330011e-01 1.172336433779989973e+00 -3.957962179118170165e-01
1.884955592153875870e+00 -2.930251932115299773e-01 1.135957422534100036e+00 -3.956278303880749747e-01
1.937315469713705829e+00 -3.429509419692440275e-01 1.094256122553830091e+00 -3.950304110953090087e-01
1.989675347273535788e+00 -3.920965022186180260e-01 1.042745725338950047e+00 -3.934210744944789950e-01
2.042035224833365525e+00 -4.410528059599759798e-01 9.900878105332939771e-01 -3.918107265918859827e-01
2.094395102393195263e+00 -4.898295747856379889e-01 9.365553122991590040e-01 -3.903046386243240184e-01
2.146754979953025444e+00 -5.364316541900899793e-01 8.743060531106190414e-01 -3.903158508928860071e-01
2.199114857512855181e+00 -5.827582439292160466e-01 8.111235788938789826e-01 -3.904238333639429848e-01
2.251474735072684918e+00 -6.289659026957959975e-01 7.475361097683800304e-01 -3.908722486070629887e-01
2.303834612632515100e+00 -6.750848614838209638e-01 6.819862594559089608e-01 -3.954077411781219964e-01
2.356194490192344837e+00 -7.212214229712520241e-01 6.153574018554629488e-01 -4.026642870983869749e-01
2.408554367752174574e+00 -7.676827596090579631e-01 5.486984581502309943e-01 -4.099311542046110146e-01
2.460914245312004756e+00 -8.174267814427470524e-01 4.832513934617029827e-01 -4.224543985765120135e-01
2.513274122871834493e+00 -8.733736442534839606e-01 4.202136463555070089e-01 -4.449204015759120057e-01
2.565634000431664230e+00 -9.311766302631889758e-01 3.563802817851879912e-01 -4.671999346918129792e-01
2.617993877991494411e+00 -9.664416000659119543e-01 2.947646655860480247e-01 -4.882762298315510008e-01
2.670353755551324149e+00 -9.363987051054559752e-01 2.442677593138279923e-01 -4.974235603338140188e-01
2.722713633111153886e+00 -9.050515455079279903e-01 1.941864965498089901e-01 -5.079144030149950195e-01
2.775073510670984067e+00 -8.732082460595349538e-01 1.445430854118990027e-01 -5.183832155965829580e-01
2.827433388230813804e+00 -7.762756251179230294e-01 1.168000811945389961e-01 -4.977375696315070042e-01
2.879793265790643542e+00 -6.468802438427609935e-01 9.830785997019829414e-02 -4.615147472480489732e-01
