# Angle of attack [rad] 	 Lift coefficient [-] 	 Drag coefficient [-] 	 Moment coefficient [-]
-3.141592653589793116e+00 0.000000000000000000e+00 5.948648293661040060e-02 0.000000000000000000e+00
-3.089232776029963379e+00 1.169045648090129980e-01 6.009674942468590242e-02 1.086154546135990051e-01
-3.036872898470133197e+00 2.346571362829590057e-01 6.172996740913239827e-02 2.177520694754140063e-01
-2.984513020910303460e+00 3.524097796082339973e-01 6.438468801322010104e-02 3.268883122300639821e-01
-2.932153143350473723e+00 4.699840771510079840e-01 7.224896603099359438e-02 3.626461662528490115e-01
-2.879793265790643542e+00 5.874642463084349675e-01 8.901222520753029888e-02 3.615429032684889799e-01
-2.827433388230813804e+00 7.049489341432589873e-01 1.154080802186420035e-01 3.602591900884419829e-01
-2.775073510670984067e+00 8.022203931773750352e-01 1.487049753779199901e-01 3.619956115980360045e-01
-2.722713633111153886e+00 8.583964143700589799e-01 1.978994662873700128e-01 3.698313996332729947e-01
-2.670353755551324149e+00 9.126501993269839907e-01 2.491137738506810084e-01 3.774143599093710000e-01
-2.617993877991494411e+00 9.618617689691190131e-01 3.022475052508459825e-01 3.833294225727579829e-01
-2.565634000431664230e+00 9.575241152385459698e-01 3.639010973727230258e-01 3.677751389485109934e-01
-2.513274122871834493e+00 8.975380387598299592e-01 4.286487121853370108e-01 3.502640548403009868e-01
-2.460914245312004756e+00 8.421422080760240236e-01 4.935449582530189727e-01 3.324786332921719767e-01
-2.408554367752174574e+00 7.913104949671370125e-01 5.601713206374010490e-01 3.220262366447599889e-01
-2.356194490192344837e+00 7.431995630708300160e-01 6.277416171839540482e-01 3.157103577511690129e-01
-2.303834612632515100e+00 6.958980159425719458e-01 6.953442076989909681e-01 3.094056216156270134e-01
-2.251474735072684918e+00 6.486601958884989916e-01 7.618999848059430091e-01 3.062174648728919757e-01
-2.199114857512855181e+00 6.012397098762669589e-01 8.267734347043199650e-01 3.063095545358219818e-01
-2.146754979953025444e+00 5.535219282193399870e-01 8.906441970762759563e-01 3.071452508178250107e-01
-2.094395102393195263e+00 5.051154030429230168e-01 9.522378660729160504e-01 3.082085259028780055e-01
-2.042035224833365525e+00 4.551241612364400058e-01 1.007601353250199949e+00 3.106853066493129867e-01
-1.989675347273535788e+00 4.046841396614370145e-01 1.060818820508860005e+00 3.134081004995000197e-01
-1.937315469713705829e+00 3.537701406538070192e-01 1.111261019792119997e+00 3.161254496554419813e-01
-1.884955592153875870e+00 3.021503589836759818e-01 1.153398604299509911e+00 3.178290502076679958e-01
-1.832595714594046132e+00 2.502905585684779832e-01 1.190363496023280065e+00 3.191637699466269851e-01
-1.780235837034216173e+00 1.984481634723569976e-01 1.224118747116250017e+00 3.203433267029410225e-01
-1.727875959474386214e+00 1.472507305716020121e-01 1.250547456468519947e+00 3.203265377819010107e-01
-1.675516081914556477e+00 9.737217355351200643e-02 1.267435786029450062e+00 3.183473765542069733e-01
-1.623156204354726517e+00 4.823674049907859807e-02 1.280593221331800091e+00 3.161428564731599833e-01
-1.570796326794896558e+00 -1.807487048606869970e-06 1.289894247123960058e+00 3.139372382766539848e-01
-1.518436449235066599e+00 -4.823846609940769803e-02 1.280592736715630009e+00 3.058241345014380275e-01
-1.466076571675236861e+00 -9.737303940461579377e-02 1.267435634087390017e+00 2.977103623566180191e-01
-1.413716694115406902e+00 -1.472506785413809915e-01 1.250547642487509936e+00 2.894187627554549724e-01
-1.361356816555576943e+00 -1.984477322639580099e-01 1.224119438351779943e+00 2.795566953324190029e-01
-1.308996938995747206e+00 -2.502901294861060166e-01 1.190364197159559989e+00 2.687382501339650176e-01
-1.256637061435917246e+00 -3.021499324550899757e-01 1.153399306545259906e+00 2.577982038556119737e-01
-1.204277183876087287e+00 -3.537660703690420072e-01 1.111261657561180005e+00 2.466215778862989871e-01
-1.151917306316257550e+00 -4.046690094476089739e-01 1.060818292056139978e+00 2.347702316638849984e-01
-1.099557428756427591e+00 -4.550979889425130209e-01 1.007599635369899937e+00 2.229114078617409900e-01
-1.047197551196597631e+00 -5.050782372812600007e-01 9.522347796962199462e-01 2.110908373002589877e-01
-9.948376736367678941e-01 -5.534956699325249696e-01 8.906420985259879686e-01 1.995282136454190058e-01
-9.424777960769379348e-01 -6.012245679446469593e-01 8.267727759081040517e-01 1.879585419293549886e-01
-8.901179185171080865e-01 -6.486561563080750492e-01 7.619008012818300202e-01 1.764186749499009887e-01
-8.377580409572782383e-01 -6.958976599702959565e-01 6.953456091371249537e-01 1.657775017802859963e-01
-7.853981633974482790e-01 -7.431991971749269954e-01 6.277430544725189909e-01 1.556671009373540027e-01
-7.330382858376184307e-01 -8.288101374338390226e-01 5.601728121027970131e-01 1.455506806367710126e-01
-6.806784082777884715e-01 -9.171416128596260320e-01 4.935464237993090197e-01 1.274742649601620093e-01
-6.283185307179586232e-01 -1.010037380165869969e+00 4.286502968434430239e-01 9.695694125014449327e-02
-5.759586531581287749e-01 -1.107523472121860086e+00 3.639030577352300178e-01 6.497571998442840113e-02
-5.235987755982988157e-01 -1.205979864447900063e+00 2.854829712624329940e-01 4.837539139843199942e-02
-5.130210225559090897e-01 -1.219386886583520013e+00 2.689216088743390243e-01 4.485293753285510276e-02
-5.024432695135193638e-01 -1.233873851830959989e+00 2.531157912746960226e-01 4.133048366727830325e-02
-4.918655164711295824e-01 -1.248805884765129992e+00 2.374253320946169976e-01 3.780802980170139965e-02
-4.812877634287397455e-01 -1.256086772594940060e+00 2.267910993307220013e-01 3.445741120499779681e-02
-4.707100103863500196e-01 -1.260385626775569978e+00 2.183328654046010064e-01 3.118043628031429843e-02
-4.601322573439602381e-01 -1.265072312064950077e+00 2.106317311036000062e-01 2.790346135563069943e-02
-4.495545043015704567e-01 -1.270105085445520032e+00 2.029165288325679994e-01 2.462648643094720105e-02
-4.389767512591789544e-01 -1.275445106728170019e+00 1.951629582614859970e-01 2.134951150626359859e-02
-4.283989982167891730e-01 -1.275374144616840066e+00 1.873742662295999895e-01 1.807253658158010021e-02
-4.178212451743993916e-01 -1.273572744146389990e+00 1.795418233918489870e-01 1.482221275976619915e-02
-4.072434921320096657e-01 -1.271298491798930064e+00 1.716073818676190077e-01 1.181174898437450070e-02
-3.966657390896198843e-01 -1.269184874882770098e+00 1.637001733179190011e-01 8.801285208982869909e-03
-3.860879860472301028e-01 -1.267236548432240095e+00 1.558190073078450089e-01 5.790821433591180137e-03
-3.755102330048403769e-01 -1.264772422366579940e+00 1.479627559997289954e-01 2.715601943810399838e-03
-3.649324799624505400e-01 -1.261945842960769948e+00 1.401303489890430021e-01 -6.894039559432959836e-04
-3.543547269200608141e-01 -1.259119263554959955e+00 1.323207683573809912e-01 -3.989210449737700184e-03
-3.437769738776710327e-01 -1.251726059460060103e+00 1.257466482426690124e-01 -7.841833030867859794e-03
-3.331992208352812512e-01 -1.233912002876160097e+00 1.217182443809920050e-01 -9.143096986404650531e-03
-3.226214677928914698e-01 -1.227795339380959971e+00 1.166474102642459931e-01 -1.049383131226640058e-02
-3.120437147505017439e-01 -1.200947142465599971e+00 1.124453002026939985e-01 -1.172219352850720035e-02
-3.014659617081119070e-01 -1.172526550596370010e+00 1.077577054129360001e-01 -1.279258279960169935e-02
-2.908882086657221810e-01 -1.144301760944899993e+00 1.030968294371029936e-01 -1.380517656806110049e-02
-2.803104556233323996e-01 -1.110975745939059900e+00 9.897917947857770571e-02 -1.475938555527350066e-02
-2.697327025809426182e-01 -1.082879189439150069e+00 9.461588411277120636e-02 -1.545181845171960007e-02
-2.591549495385511159e-01 -1.053458846954770101e+00 9.044755033759810381e-02 -1.611458185888210021e-02
-2.485771964961613345e-01 -1.021053631963900088e+00 8.656516616707389533e-02 -1.668606688472029989e-02
-2.379994434537715531e-01 -9.900111288327489989e-01 8.273397362094710161e-02 -1.721302973455969901e-02
-2.274216904113817994e-01 -9.614007028928529541e-01 7.884592128160519686e-02 -1.739206626103070169e-02
-2.168439373689920457e-01 -9.273614381486819935e-01 7.541237732316130593e-02 -1.778306567429049911e-02
-2.062661843266022643e-01 -8.966483429339340283e-01 7.179300000967850370e-02 -1.792957002111809917e-02
-1.956884312842125107e-01 -8.633528199958599991e-01 6.857417168516370676e-02 -1.773279063963360130e-02
-1.851106782418227292e-01 -8.346481705698990394e-01 6.504889494764219682e-02 -1.675375949140840010e-02
-1.745329251994329478e-01 -8.069757155484530431e-01 6.172546347478630180e-02 -1.495684044516880015e-02
-1.639551721570429998e-01 -7.514066164678799842e-01 5.916889711181540223e-02 -1.890487930645709871e-02
-1.533774191146532462e-01 -6.908700611870810526e-01 5.664889263273689690e-02 -2.400627796697360136e-02
-1.427996660722632982e-01 -6.258637114754029840e-01 5.422988992375350065e-02 -2.976692762362929956e-02
-1.322219130298735168e-01 -5.524724621413340531e-01 5.255465643712819990e-02 -3.612361726623890268e-02
-1.216441599874835688e-01 -4.741021775922339976e-01 5.112065483652439984e-02 -4.296587971111150150e-02
-1.110664069450936348e-01 -3.944291951914150052e-01 4.969976520349379812e-02 -4.997528838076169960e-02
-1.004886539027038533e-01 -3.150613928445449852e-01 4.856485300391170240e-02 -5.629680864993159839e-02
-8.991090086031391926e-02 -2.334187592262809974e-01 4.763092642062900089e-02 -6.272600627378240035e-02
-7.933314781792397130e-02 -1.522332453057489987e-01 4.674287920243420241e-02 -6.873149493676559973e-02
-6.875539477553420376e-02 -7.120039374275760613e-02 4.594032196858709866e-02 -7.427481627742130166e-02
-5.817764173314425580e-02 1.176149288199030037e-02 4.553653357124889944e-02 -7.949418389786129524e-02
-4.759988869075449519e-02 9.005135120840940255e-02 4.521684060358729940e-02 -8.411858571436579834e-02
-3.702213564836454723e-02 1.678439276766509891e-01 4.489642288055029767e-02 -8.905753165556200279e-02
-2.644438260597477622e-02 2.448880978294810107e-01 4.468140291871639663e-02 -9.421445505883049854e-02
-1.586662956358486296e-02 3.254991770258129913e-01 4.461282247784859739e-02 -9.907865014906909462e-02
-5.288876521194919335e-03 4.075659745883479790e-01 4.455974169014299824e-02 -1.033940759381249963e-01
5.288876521194919335e-03 4.899849191564860096e-01 4.458111386821920347e-02 -1.075582939210070060e-01
1.586662956358486296e-02 5.726808325686859602e-01 4.462229458983409808e-02 -1.115420619708499955e-01
2.644438260597477622e-02 6.547231820714860540e-01 4.472804927587790275e-02 -1.152099911243630037e-01
3.702213564836454723e-02 7.359945939150780436e-01 4.484772630603930249e-02 -1.187537048677250046e-01
4.759988869075449519e-02 8.165810737404569641e-01 4.502936587566069848e-02 -1.219128704936189994e-01
5.817764173314425580e-02 8.964240838666609479e-01 4.527107988931829835e-02 -1.249700199506500048e-01
6.875539477553420376e-02 9.757584121258999765e-01 4.546765859534410148e-02 -1.278088905376079942e-01
7.933314781792415171e-02 1.053915422058149920e+00 4.577746467993139973e-02 -1.304263717433430114e-01
8.991090086031391926e-02 1.131597563594999967e+00 4.611491347206800318e-02 -1.328341305402410133e-01
1.004886539027038533e-01 1.208147886387159975e+00 4.644613248476819889e-02 -1.350072438165330069e-01
1.110664069450938152e-01 1.283557761450730084e+00 4.691468002140990190e-02 -1.369387491147310010e-01
1.216441599874835688e-01 1.358289844766950027e+00 4.736123320419449723e-02 -1.386874295583480077e-01
1.322219130298733503e-01 1.430945789863979911e+00 4.793108502068470222e-02 -1.400893034804319981e-01
1.427996660722632982e-01 1.501968219480350086e+00 4.861280099247400344e-02 -1.411406969942499978e-01
1.533774191146532462e-01 1.571362772656319962e+00 4.937763942660260141e-02 -1.419523110676050026e-01
1.639551721570429998e-01 1.636892846500429988e+00 5.037401483280579823e-02 -1.423206265548490057e-01
1.745329251994329478e-01 1.698881496419099912e+00 5.147912721853110246e-02 -1.422655734015660089e-01
1.851106782418227292e-01 1.755470624523999934e+00 5.320288861206150244e-02 -1.417463445981189951e-01
1.956884312842125107e-01 1.804488393978239902e+00 5.539892352070129727e-02 -1.399609959743300103e-01
2.062661843266022643e-01 1.836376097144619912e+00 5.851986012084720024e-02 -1.376551793915949951e-01
2.168439373689920457e-01 1.864631065216900030e+00 6.246215207994609830e-02 -1.355468352649669972e-01
2.274216904113817994e-01 1.894334217861600056e+00 6.664274999803880550e-02 -1.338688217604570019e-01
2.379994434537715531e-01 1.917443809860909898e+00 7.145148566087450304e-02 -1.315546872337320095e-01
2.485771964961613345e-01 1.941353268940489984e+00 7.633229168818089772e-02 -1.294418488793840083e-01
2.591549495385511159e-01 1.969455865154799978e+00 8.085363288419830652e-02 -1.279983401039110069e-01
2.697327025809426182e-01 1.991985893894520077e+00 8.604479414464549780e-02 -1.264667269561539908e-01
2.803104556233323996e-01 2.008320591477430028e+00 9.200794501407699721e-02 -1.248530965604120052e-01
2.908882086657221810e-01 2.012486120985390148e+00 9.979143567125560443e-02 -1.235588206289130048e-01
3.014659617081119070e-01 2.018600294265699979e+00 1.073276850975620061e-01 -1.224683118566110007e-01
3.120437147505017439e-01 1.990726914414840065e+00 1.157633105216590019e-01 -1.213860423987350029e-01
3.226214677928914698e-01 1.959281632391449923e+00 1.248574744034299938e-01 -1.214020212938039939e-01
3.331992208352812512e-01 1.930503543349179951e+00 1.338153103269779931e-01 -1.218981262648739933e-01
3.437769738776710327e-01 1.900368443913899918e+00 1.429220118093749992e-01 -1.225917485880869962e-01
3.543547269200608141e-01 1.874359465401459923e+00 1.520689330066359868e-01 -1.240920516092020032e-01
3.649324799624505400e-01 1.853522640115260023e+00 1.611052133679579945e-01 -1.260884072244629894e-01
3.755102330048403769e-01 1.835017876860089991e+00 1.698874837833470042e-01 -1.283024316080929872e-01
3.860879860472301028e-01 1.819941294888290040e+00 1.782548983158949996e-01 -1.307647851789049964e-01
3.966657390896198843e-01 1.807183768636879906e+00 1.864176346397350137e-01 -1.334398265130820049e-01
4.072434921320096657e-01 1.795065858241140067e+00 1.947011952031829918e-01 -1.361895871323700047e-01
4.178212451743993916e-01 1.783033312167080053e+00 2.029536312318880042e-01 -1.391567842395710075e-01
4.283989982167891730e-01 1.773980340030399949e+00 2.121547566442129884e-01 -1.431420882624679924e-01
4.389767512591789544e-01 1.759328865499020011e+00 2.224718744993199881e-01 -1.477405850565549905e-01
4.495545043015704567e-01 1.737656241928140055e+00 2.331654530605110076e-01 -1.525242510358250092e-01
4.601322573439602381e-01 1.715856837378890054e+00 2.439360532541720028e-01 -1.572762143235200138e-01
4.707100103863500196e-01 1.694140994350439966e+00 2.546548087607550248e-01 -1.619958980471480070e-01
4.812877634287397455e-01 1.672479498330960102e+00 2.653527755146479761e-01 -1.666656171772069872e-01
4.918655164711295824e-01 1.650754825103299961e+00 2.760550684547919964e-01 -1.712613117517370054e-01
5.024432695135193638e-01 1.632996999264509919e+00 2.867662557929029910e-01 -1.757777964391790126e-01
5.130210225559090897e-01 1.619639644955650049e+00 2.975545310661619758e-01 -1.802907157709099928e-01
5.235987755982988157e-01 1.604187329573389942e+00 3.088992966105469917e-01 -1.838147525303329977e-01
5.759586531581287749e-01 1.513992732645109918e+00 3.684456707752249982e-01 -1.995366158724450056e-01
6.283185307179586232e-01 1.391515920929849992e+00 4.316527816248320049e-01 -2.153231234676150074e-01
6.806784082777884715e-01 1.275523049264609909e+00 4.957794498614350176e-01 -2.308879293477220096e-01
7.330382858376184307e-01 1.166426630210090076e+00 5.618587970677220156e-01 -2.431084914302290012e-01
7.853981633974482790e-01 1.060789249446770111e+00 6.287630577937619591e-01 -2.534696838464690072e-01
8.377580409572782383e-01 9.937907869362250235e-01 6.957514648638269961e-01 -2.638030534473719824e-01
8.901179185171080865e-01 9.266578786498089748e-01 7.619008012818300202e-01 -2.738205068903030170e-01
9.424777960769379348e-01 8.589193032978199582e-01 8.267727759081040517e-01 -2.835656969579560260e-01
9.948376736367678941e-01 7.907560218098490523e-01 8.906420985259879686e-01 -2.931836337020520267e-01
1.047197551196597631e+00 7.216089049121959809e-01 9.522347796962209454e-01 -3.028066592602929874e-01
1.099557428756427591e+00 6.501913866087239979e-01 1.007599635369899937e+00 -3.126222047834250062e-01
1.151917306316257550e+00 5.781326397635160319e-01 1.060818292056139978e+00 -3.220493376278160125e-01
1.204277183876087287e+00 5.053967368901830515e-01 1.111261657561180005e+00 -3.315118647096019777e-01
1.256637061435917246e+00 4.316547606660759984e-01 1.153399306545259906e+00 -3.409140749791860214e-01
1.308996938995747206e+00 3.575710568743930007e-01 1.190364197159559989e+00 -3.503214622238159937e-01
1.361356816555576943e+00 2.835122167096559842e-01 1.224119438351779943e+00 -3.596905934372149893e-01
1.413716694115406902e+00 2.103729491581599886e-01 1.250547642487509936e+00 -3.686797105008099984e-01
1.466076571675236861e+00 1.391139338591849961e-01 1.267435634087390017e+00 -3.770756838599170213e-01
1.518436449235066599e+00 6.891666729194019514e-02 1.280592736715630009e+00 -3.853838129177760141e-01
1.570796326794896558e+00 1.647189472997839976e-06 1.289894247123960058e+00 -3.937014985471840034e-01
1.623156204354726517e+00 -4.823699743937560208e-02 1.280593221331800091e+00 -3.973783583194430147e-01
1.675516081914556477e+00 -9.737257017018019489e-02 1.267435786029450062e+00 -4.010542761317720251e-01
1.727875959474386214e+00 -1.472512691831779907e-01 1.250547456468519947e+00 -4.044475433804229914e-01
1.780235837034216173e+00 -1.984487364256179998e-01 1.224118747116250017e+00 -4.059487212987529792e-01
1.832595714594046132e+00 -2.502911344961640250e-01 1.190363496023280065e+00 -4.062362444236199965e-01
1.884955592153875870e+00 -3.021509379628020131e-01 1.153398604299509911e+00 -4.063278165999330005e-01
1.937315469713705829e+00 -3.537666820730139827e-01 1.111261019792119997e+00 -4.060595243514770192e-01
1.989675347273535788e+00 -4.046685101883230051e-01 1.060818820508860005e+00 -4.046981197703209965e-01
2.042035224833365525e+00 -4.550963782657890255e-01 1.007601353250199949e+00 -4.033360112113960061e-01
2.094395102393195263e+00 -5.050755727762660241e-01 9.522378660729150512e-01 -4.022489039430909852e-01
2.146754979953025444e+00 -5.534941465603729904e-01 8.906441970762759563e-01 -4.024483331501059746e-01
2.199114857512855181e+00 -6.012240961144470486e-01 8.267734347043199650e-01 -4.029042737075819725e-01
2.251474735072684918e+00 -6.486567343240720040e-01 7.618999848059420099e-01 -4.042473571085899997e-01
2.303834612632515100e+00 -6.958985851554330138e-01 6.953442076989899689e-01 -4.088190459577060176e-01
2.356194490192344837e+00 -7.432001211704439836e-01 6.277416171839540482e-01 -4.167725125775780248e-01
2.408554367752174574e+00 -7.913110625402599574e-01 5.601713206374000498e-01 -4.247663798055770212e-01
2.460914245312004756e+00 -8.421427588067940118e-01 4.935449582530189727e-01 -4.369778407893090133e-01
2.513274122871834493e+00 -8.975385120161879504e-01 4.286487121853370108e-01 -4.563349704327689937e-01
2.565634000431664230e+00 -9.575246070538729892e-01 3.639010973727230258e-01 -4.753839527655310260e-01
2.617993877991494411e+00 -9.618617689691180139e-01 3.022475052508459825e-01 -4.917700758095139846e-01
2.670353755551324149e+00 -9.126498011334629457e-01 2.491135140848730056e-01 -4.896218685470610232e-01
2.722713633111153886e+00 -8.583953457735240544e-01 1.978988729115729872e-01 -4.869913446117000166e-01
2.775073510670984067e+00 -8.022227375041379727e-01 1.487061339183519959e-01 -4.842756489257630248e-01
2.827433388230813804e+00 -7.049353356796159709e-01 1.154069604273520039e-01 -4.745935502082490043e-01
2.879793265790643542e+00 -5.874361004671480035e-01 8.901222520753039602e-02 -4.613663921109910082e-01
