# Angle of attack [rad] 	 Lift coefficient [-] 	 Drag coefficient [-] 	 Moment coefficient [-]
-3.141592653589793116e+00 1.506216347553489954e-07 9.146057548565529605e-02 -1.506216347553489954e-07
-3.089232776029963379e+00 1.314431932797769931e-01 9.134615994056910493e-02 8.965468820311560394e-02
-3.036872898470133197e+00 2.643946637974610159e-01 9.103282094712659978e-02 1.804358034885109874e-01
-2.984513020910303460e+00 3.973461325772160158e-01 9.050005132914480666e-02 2.712175042384000201e-01
-2.932153143350473723e+00 5.299772093227089753e-01 9.900567066277089767e-02 2.949800885264169947e-01
-2.879793265790643542e+00 6.624481303824190093e-01 1.106723729332179940e-01 2.853858228781380180e-01
-2.827433388230813804e+00 7.949190181965900548e-01 1.198257198643540022e-01 2.759506616753200081e-01
-2.775073510670984067e+00 8.915063547905179853e-01 1.436637713813299910e-01 2.673912827374290146e-01
-2.722713633111153886e+00 9.163461391718710214e-01 1.933610880092299922e-01 2.605388202191160074e-01
-2.670353755551324149e+00 9.411859540341379615e-01 2.430432765623420088e-01 2.540121331643139801e-01
-2.617993877991494411e+00 9.660257674080620083e-01 2.927110889653730119e-01 2.477176810808350005e-01
-2.565634000431664230e+00 8.975466257610510423e-01 3.536726681262790106e-01 2.308322057697410057e-01
-2.513274122871834493e+00 8.424190574467850245e-01 4.126249623276639911e-01 2.140476107767040059e-01
-2.460914245312004756e+00 7.862204194283169967e-01 4.726349043042469833e-01 1.972984425313460133e-01
-2.408554367752174574e+00 7.379380329349329859e-01 5.359515108603990496e-01 1.895639425667950129e-01
-2.356194490192344837e+00 6.935073344259260475e-01 6.009329541617649539e-01 1.863108049741870054e-01
-2.303834612632515100e+00 6.488907997392040494e-01 6.659587497247849708e-01 1.830576801732380077e-01
-2.251474735072684918e+00 6.042600381359980455e-01 7.299520688157300485e-01 1.816064060700069982e-01
-2.199114857512855181e+00 5.596713524976320020e-01 7.917498931624159519e-01 1.838359711159970045e-01
-2.146754979953025444e+00 5.151504814010989808e-01 8.537811580171820180e-01 1.860490286446939978e-01
-2.094395102393195263e+00 4.707863695929460079e-01 9.163568784512660104e-01 1.882592710437309969e-01
-2.042035224833365525e+00 4.235541748604729761e-01 9.676133523481930121e-01 1.919709191566630058e-01
-1.989675347273535788e+00 3.764245007015269984e-01 1.019378815195780108e+00 1.956810536459140104e-01
-1.937315469713705829e+00 3.294025644818719956e-01 1.071822345210740046e+00 1.993960655016880079e-01
-1.884955592153875870e+00 2.815599401156450021e-01 1.112848550153300087e+00 2.023012094707359876e-01
-1.832595714594046132e+00 2.332809949910200076e-01 1.148408409066060010e+00 2.047966780118160024e-01
-1.780235837034216173e+00 1.849980746003629939e-01 1.184771304769860034e+00 2.073025684791610090e-01
-1.727875959474386214e+00 1.375850759394399991e-01 1.214601293689540062e+00 2.087811541524760006e-01
-1.675516081914556477e+00 9.190972362475549606e-02 1.230024857263559923e+00 2.081803505948509880e-01
-1.623156204354726517e+00 4.606373747970109872e-02 1.246413752237210071e+00 2.075905168726409900e-01
-1.570796326794896558e+00 -3.123694936468059924e-06 1.263846465360199955e+00 2.070015162910210094e-01
-1.518436449235066599e+00 -4.606767432172109711e-02 1.246412232598689940e+00 2.001940003588260075e-01
-1.466076571675236861e+00 -9.191044368023110200e-02 1.230024388104250077e+00 1.933891030773330078e-01
-1.413716694115406902e+00 -1.375826305322910004e-01 1.214601870261099892e+00 1.865942413600679972e-01
-1.361356816555576943e+00 -1.849944503012860009e-01 1.184773405441170047e+00 1.781267957415899883e-01
-1.308996938995747206e+00 -2.332773685748399939e-01 1.148410501150880059e+00 1.688349374680649939e-01
-1.256637061435917246e+00 -2.815563114380599807e-01 1.112850641285179965e+00 1.595550632254859880e-01
-1.204277183876087287e+00 -3.293887093109330033e-01 1.071824236249089957e+00 1.500437909628890010e-01
-1.151917306316257550e+00 -3.763798049945090152e-01 1.019377283500839892e+00 1.400704083971739955e-01
-1.099557428756427591e+00 -4.234786233134449907e-01 9.676084179703270394e-01 1.301075769633220081e-01
-1.047197551196597631e+00 -4.706797395817949869e-01 9.163479765923939757e-01 1.201554412917699988e-01
-9.948376736367678941e-01 -5.150746809470400089e-01 8.537752760524429663e-01 1.110781444133770030e-01
-9.424777960769379348e-01 -5.596265654769330133e-01 7.917480784293630114e-01 1.020098964958419951e-01
-8.901179185171080865e-01 -6.042462767416290070e-01 7.299542901929070293e-01 9.295178480898209916e-02
-8.377580409572782383e-01 -6.488873988564439754e-01 6.659624749331960469e-01 8.525628258849099472e-02
-7.853981633974482790e-01 -6.935039420165739488e-01 6.009366481832749685e-01 7.824081414871769669e-02
-7.330382858376184307e-01 -7.754346333265480506e-01 5.359551569664500192e-01 7.123064404410750505e-02
-6.806784082777884715e-01 -8.612164029653930353e-01 4.726382382036820040e-01 6.486908448674859329e-02
-6.283185307179586232e-01 -9.549150964715640288e-01 4.126281916958209894e-01 5.986675146412070297e-02
-5.759586531581287749e-01 -1.047542651498390098e+00 3.536755494141480272e-01 5.595511164725459896e-02
-5.235987755982988157e-01 -1.138449628024210014e+00 2.944893683258960060e-01 5.214945767911009777e-02
-5.130210225559090897e-01 -1.148031236958289902e+00 2.869030143035050107e-01 4.860911130522579948e-02
-5.024432695135193638e-01 -1.157687704801930062e+00 2.790961485124089925e-01 4.506876493134150119e-02
-4.918655164711295824e-01 -1.167413012894650048e+00 2.711925762711500099e-01 4.152841855745720290e-02
-4.812877634287397455e-01 -1.179230909122870097e+00 2.629350380690539946e-01 3.798678516735100319e-02
-4.707100103863500196e-01 -1.191991330652909964e+00 2.545062997750239808e-01 3.444460019897369746e-02
-4.601322573439602381e-01 -1.204831146798970076e+00 2.460529924225000054e-01 3.090241523059630152e-02
-4.495545043015704567e-01 -1.217755708234220080e+00 2.375769289096849868e-01 2.736023026221899926e-02
-4.389767512591789544e-01 -1.230770857481080061e+00 2.290797480565680000e-01 2.381804529384170047e-02
-4.283989982167891730e-01 -1.238201168573890065e+00 2.205629350092900010e-01 2.027586032546440167e-02
-4.178212451743993916e-01 -1.243873134981390072e+00 2.120225912799690027e-01 1.673347574497049961e-02
-4.072434921320096657e-01 -1.249962471858180102e+00 2.034134648584620120e-01 1.318929465452410056e-02
-3.966657390896198843e-01 -1.256214143341179978e+00 1.947802090081220128e-01 9.645113564077729268e-03
-3.860879860472301028e-01 -1.262643250211660018e+00 1.861238539036680073e-01 6.100932473631339760e-03
-3.755102330048403769e-01 -1.267400425576989953e+00 1.774453719000320118e-01 2.490244081191399922e-03
-3.649324799624505400e-01 -1.271122458499789998e+00 1.687456815327340043e-01 -9.830811986006010410e-04
-3.543547269200608141e-01 -1.274844491422590043e+00 1.600256511906580081e-01 -4.528439651465729875e-03
-3.437769738776710327e-01 -1.270892243464009974e+00 1.526938475669029904e-01 -9.005460984461569410e-03
-3.331992208352812512e-01 -1.248660098118949957e+00 1.497919293253489881e-01 -1.028135374130080028e-02
-3.226214677928914698e-01 -1.247619144935310009e+00 1.445495949890160114e-01 -1.162407410739640067e-02
-3.120437147505017439e-01 -1.228925881283289945e+00 1.413027992205000138e-01 -1.281637168855269925e-02
-3.014659617081119070e-01 -1.201806242767770039e+00 1.370756883268610116e-01 -1.386008699381620010e-02
-2.908882086657221810e-01 -1.170517838041690073e+00 1.329082698680670027e-01 -1.482768149494939972e-02
-2.803104556233323996e-01 -1.131488775813729974e+00 1.299556016592439966e-01 -1.571962628044730123e-02
-2.697327025809426182e-01 -1.099005544403419909e+00 1.260676378309759926e-01 -1.646510139223230154e-02
-2.591549495385511159e-01 -1.064359206206380026e+00 1.225717056517979936e-01 -1.719367804153299970e-02
-2.485771964961613345e-01 -1.025183588443280058e+00 1.197111374239370057e-01 -1.780081700431580122e-02
-2.379994434537715531e-01 -9.873766324439080533e-01 1.167124320838929946e-01 -1.848364816319730125e-02
-2.274216904113817994e-01 -9.527940495494510165e-01 1.134218422575559992e-01 -1.879410475426520136e-02
-2.168439373689920457e-01 -9.099736847697700304e-01 1.111368733088719946e-01 -1.939594821291390145e-02
-2.062661843266022643e-01 -8.719078129832299462e-01 1.082884476339509988e-01 -1.974297924100469961e-02
-1.956884312842125107e-01 -8.291429261693850084e-01 1.059773554585100031e-01 -1.994113296861710002e-02
-1.851106782418227292e-01 -7.936821148049729713e-01 1.029989957477930040e-01 -1.948373657998899930e-02
-1.745329251994329478e-01 -7.597960517516769707e-01 1.004766437859660050e-01 -1.829769388373439845e-02
-1.639551721570429998e-01 -7.044173990662020435e-01 9.885490858982050322e-02 -2.129249271398400006e-02
-1.533774191146532462e-01 -6.408214684326389854e-01 9.735099769563310135e-02 -2.637673728506730042e-02
-1.427996660722632982e-01 -5.689090674937780090e-01 9.610977529318759371e-02 -3.265529194181299860e-02
-1.322219130298735168e-01 -4.954447961440709980e-01 9.537584481482459797e-02 -3.889232027389710050e-02
-1.216441599874835688e-01 -4.198168737844890086e-01 9.468385397960349392e-02 -4.552845365186280330e-02
-1.110664069450936348e-01 -3.425597703781039782e-01 9.403006619589669712e-02 -5.246739191476790243e-02
-1.004886539027038533e-01 -2.671503376332510227e-01 9.368483418732119483e-02 -5.845195756453099717e-02
-8.991090086031391926e-02 -1.900825229077079959e-01 9.329219364497569333e-02 -6.506931953108470446e-02
-7.933314781792397130e-02 -1.148739922432240046e-01 9.300910435981379898e-02 -7.091908328646630288e-02
-6.875539477553420376e-02 -4.241776997576140323e-02 9.282760055054629922e-02 -7.593419872752900368e-02
-5.817764173314425580e-02 2.909196751861349919e-02 9.267515978463869430e-02 -8.038602956059480442e-02
-4.759988869075449519e-02 1.002252904386849996e-01 9.270985567642910097e-02 -8.370768156088050083e-02
-3.702213564836454723e-02 1.712049381043090068e-01 9.274438563115830481e-02 -8.683111131279809547e-02
-2.644438260597477622e-02 2.419022660091539878e-01 9.265613490494190030e-02 -8.983143237147739324e-02
-1.586662956358486296e-02 3.106612682511600276e-01 9.277531541437880613e-02 -9.260897409745609543e-02
-5.288876521194919335e-03 3.781976194197669838e-01 9.278101571421190630e-02 -9.517381513930670001e-02
5.288876521194919335e-03 4.480767704133319929e-01 9.288986754141509428e-02 -9.783003249121040301e-02
1.586662956358486296e-02 5.194856681675730226e-01 9.298172648204129642e-02 -1.004640453820680041e-01
2.644438260597477622e-02 5.911641523507099594e-01 9.309579625114200452e-02 -1.030291169945820040e-01
3.702213564836454723e-02 6.618731842333469562e-01 9.319921019760689374e-02 -1.055689595012840043e-01
4.759988869075449519e-02 7.326351132237779451e-01 9.335815629433939777e-02 -1.077505133655270037e-01
5.817764173314425580e-02 8.028604236640399794e-01 9.359245772788220286e-02 -1.100348905640009950e-01
6.875539477553420376e-02 8.728555489355439567e-01 9.368160741433209648e-02 -1.120740079311380033e-01
7.933314781792415171e-02 9.422463284565080199e-01 9.391620344553100463e-02 -1.141250106081820037e-01
8.991090086031391926e-02 1.011427009757480011e+00 9.416769817139250542e-02 -1.158908750532069987e-01
1.004886539027038533e-01 1.079969114908809980e+00 9.430812635997129489e-02 -1.175579495683120035e-01
1.110664069450938152e-01 1.147843188381000079e+00 9.465707289543380532e-02 -1.190363663221599977e-01
1.216441599874835688e-01 1.215446332663850049e+00 9.489662523672570682e-02 -1.203380998581650013e-01
1.322219130298733503e-01 1.282381518739839965e+00 9.516548755317960628e-02 -1.215611218292519946e-01
1.427996660722632982e-01 1.347565073653899992e+00 9.555937848058919382e-02 -1.222472848360160042e-01
1.533774191146532462e-01 1.412826290062479950e+00 9.588299491490689941e-02 -1.229434817112829981e-01
1.639551721570429998e-01 1.474265732204300017e+00 9.629431658627070345e-02 -1.231236152040799947e-01
1.745329251994329478e-01 1.530522127860640014e+00 9.673185368252219807e-02 -1.225988966640920025e-01
1.851106782418227292e-01 1.586328481166549897e+00 9.718544904387099725e-02 -1.218552626528790067e-01
1.956884312842125107e-01 1.632264954560020076e+00 9.775979911590909621e-02 -1.184646121556860027e-01
2.062661843266022643e-01 1.674305519954089938e+00 9.875325097917909967e-02 -1.143999217105050037e-01
2.168439373689920457e-01 1.717577322723760069e+00 9.989115304678880536e-02 -1.109388876300879956e-01
2.274216904113817994e-01 1.763348360419350058e+00 1.011090667538439986e-01 -1.085603047032070029e-01
2.379994434537715531e-01 1.808113501182120109e+00 1.025978308363099945e-01 -1.065493699177999937e-01
2.485771964961613345e-01 1.847149271579189955e+00 1.050165340246849988e-01 -1.043995024183990011e-01
2.591549495385511159e-01 1.887356314892459919e+00 1.074669341964339941e-01 -1.028078056909180055e-01
2.697327025809426182e-01 1.924362018370660010e+00 1.104998594314200028e-01 -1.013357525132739939e-01
2.803104556233323996e-01 1.954342516285769937e+00 1.145788248836240031e-01 -9.974795026837619816e-02
2.908882086657221810e-01 1.980206405669050040e+00 1.195836578868999939e-01 -9.838806750971780535e-02
3.014659617081119070e-01 2.004764874158440069e+00 1.244093737504489983e-01 -9.744465382148240207e-02
3.120437147505017439e-01 1.987722968522940059e+00 1.312232079670740126e-01 -9.651812289421339563e-02
3.226214677928914698e-01 1.964757987253120008e+00 1.382846519738419877e-01 -9.582480722925350303e-02
3.331992208352812512e-01 1.947037931437300085e+00 1.448831267473580098e-01 -9.561424877363559893e-02
3.437769738776710327e-01 1.926859492989960065e+00 1.518344873734120137e-01 -9.580374399288739407e-02
3.543547269200608141e-01 1.904740409943330048e+00 1.592254959462819919e-01 -9.690583441148190036e-02
3.649324799624505400e-01 1.882575693262009908e+00 1.667208145688089949e-01 -9.830110846824509363e-02
3.755102330048403769e-01 1.864635779000960003e+00 1.737218506520759875e-01 -1.001289658482220069e-01
3.860879860472301028e-01 1.852906415055640021e+00 1.799116047294070098e-01 -1.024521444652640029e-01
3.966657390896198843e-01 1.845378291081569921e+00 1.858034066557260056e-01 -1.052057154117080062e-01
4.072434921320096657e-01 1.839008905845630037e+00 1.920794440906040124e-01 -1.081189758196390016e-01
4.178212451743993916e-01 1.832794168036739890e+00 1.982990957999050119e-01 -1.114886689947290066e-01
4.283989982167891730e-01 1.820029913142410027e+00 2.061138883502670049e-01 -1.159502090833350041e-01
4.389767512591789544e-01 1.797332986720679981e+00 2.159367068893109920e-01 -1.216263514529850043e-01
4.495545043015704567e-01 1.766527888026280024e+00 2.264415279141540061e-01 -1.277849364146060041e-01
4.601322573439602381e-01 1.735493110799700034e+00 2.370858826113179940e-01 -1.339750040608710113e-01
4.707100103863500196e-01 1.704609715016069948e+00 2.476363146098000123e-01 -1.401958599912780101e-01
4.812877634287397455e-01 1.673824775179139968e+00 2.581490853576359767e-01 -1.464055490527129966e-01
4.918655164711295824e-01 1.640609823673810030e+00 2.686600838258059731e-01 -1.526212412129719920e-01
5.024432695135193638e-01 1.605921824863790093e+00 2.791647729639770148e-01 -1.589456709665710010e-01
5.130210225559090897e-01 1.571240933745829960e+00 2.898091158895069741e-01 -1.653927129355179937e-01
5.235987755982988157e-01 1.543217985210530108e+00 3.014616058595919745e-01 -1.692676652654049874e-01
5.759586531581287749e-01 1.421180138383729918e+00 3.606673497980589782e-01 -1.837503238328299926e-01
6.283185307179586232e-01 1.306909290640579924e+00 4.190177999020829880e-01 -1.982798459451469986e-01
6.806784082777884715e-01 1.191065910413140028e+00 4.778498506382640176e-01 -2.128214217776270012e-01
7.330382858376184307e-01 1.087452985004450090e+00 5.401459126024410473e-01 -2.232998795033220019e-01
7.853981633974482790e-01 9.881294982372890168e-01 6.035820806066339861e-01 -2.324645002078450096e-01
8.377580409572782383e-01 9.260067036751209457e-01 6.670444694948920450e-01 -2.415570604020819967e-01
8.901179185171080865e-01 8.632293763909509865e-01 7.299542901929070293e-01 -2.507947102304309839e-01
9.424777960769379348e-01 7.995451449461039584e-01 7.917480784293630114e-01 -2.598136823865230260e-01
9.948376736367678941e-01 7.359577895305230433e-01 8.537752760524429663e-01 -2.688598670918099787e-01
1.047197551196597631e+00 6.725948274380270098e-01 9.163479765923939757e-01 -2.779051111904229932e-01
1.099557428756427591e+00 6.051159769308069869e-01 9.676084179703270394e-01 -2.875206334579830103e-01
1.151917306316257550e+00 5.377834217749359880e-01 1.019377283500839892e+00 -2.971360575968959861e-01
1.204277183876087287e+00 4.706048185126440186e-01 1.071824236249089957e+00 -3.067525232946010094e-01
1.256637061435917246e+00 4.022598902188839753e-01 1.112850641285179965e+00 -3.164746682446299975e-01
1.308996938995747206e+00 3.332948297899219758e-01 1.148410501150880059e+00 -3.262410694282800172e-01
1.361356816555576943e+00 2.643240917222979824e-01 1.184773405441170047e+00 -3.360237182121350030e-01
1.413716694115406902e+00 1.965913378964909974e-01 1.214601870261099892e+00 -3.454725582116029980e-01
1.466076571675236861e+00 1.313308350221739917e-01 1.230024388104250077e+00 -3.542064205322900117e-01
1.518436449235066599e+00 6.582644382395590188e-02 1.246412232598689940e+00 -3.629663545222089893e-01
1.570796326794896558e+00 5.652498774894519822e-06 1.263846465360199955e+00 -3.717283565480870022e-01
1.623156204354726517e+00 -4.606321007490680325e-02 1.246413752237210071e+00 -3.746770549765480185e-01
1.675516081914556477e+00 -9.190907327536579352e-02 1.230024857263559923e+00 -3.776264496698910067e-01
1.727875959474386214e+00 -1.375843006046529871e-01 1.214601293689540062e+00 -3.806460184287460136e-01
1.780235837034216173e+00 -1.849972690376670004e-01 1.184771304769860034e+00 -3.812544330990220165e-01
1.832595714594046132e+00 -2.332801868102049869e-01 1.148408409066060010e+00 -3.807240394728659827e-01
1.884955592153875870e+00 -2.815591292489200148e-01 1.112848550153300087e+00 -3.802432429875490238e-01
1.937315469713705829e+00 -3.293904201979779844e-01 1.071822345210740046e+00 -3.792721327631650152e-01
1.989675347273535788e+00 -3.763784129760400221e-01 1.019378815195780108e+00 -3.774141038725409847e-01
2.042035224833365525e+00 -4.234741283823230118e-01 9.676133523481930121e-01 -3.755571427549930230e-01
2.094395102393195263e+00 -4.706722708824420121e-01 9.163568784512660104e-01 -3.736456243707410030e-01
2.146754979953025444e+00 -5.150704279727339463e-01 8.537811580171820180e-01 -3.735121181411569791e-01
2.199114857512855181e+00 -5.596252477059060482e-01 7.917498931624159519e-01 -3.733289334641899937e-01
2.251474735072684918e+00 -6.042478958000000455e-01 7.299520688157290493e-01 -3.729623899253169950e-01
2.303834612632515100e+00 -6.488899974688470129e-01 6.659587497247839716e-01 -3.775431408183220205e-01
2.356194490192344837e+00 -6.935065419375650020e-01 6.009329541617649539e-01 -3.842347281616410037e-01
2.408554367752174574e+00 -7.379372321078919716e-01 5.359515108603980504e-01 -3.909264811479200019e-01
2.460914245312004756e+00 -7.862196334260900255e-01 4.726349043042459841e-01 -4.039258591881699778e-01
2.513274122871834493e+00 -8.424183396383420064e-01 4.126249623276639911e-01 -4.298923653391120148e-01
2.565634000431664230e+00 -8.975458916168099766e-01 3.536726681262790106e-01 -4.559840234163700101e-01
2.617993877991494411e+00 -9.660254661647930119e-01 2.927110889653730119e-01 -4.828232606939240057e-01
2.670353755551324149e+00 -9.411856561644169616e-01 2.430432785079429947e-01 -4.988593464565300173e-01
2.722713633111153886e+00 -9.163458461640400232e-01 1.933610924535119902e-01 -5.130913939397999668e-01
2.775073510670984067e+00 -8.915060361636639730e-01 1.436637627040640020e-01 -5.273234414230699718e-01
2.827433388230813804e+00 -7.948986988409689758e-01 1.198260933852259985e-01 -5.035858974970920388e-01
2.879793265790643542e+00 -6.623977380514850521e-01 1.106723729332179940e-01 -4.608583556012579852e-01
