# Angle of attack [rad] 	 Lift coefficient [-] 	 Drag coefficient [-] 	 Moment coefficient [-]
-3.141592653589793116e+00 0.000000000000000000e+00 1.178953098674030003e-02 0.000000000000000000e+00
-3.089232776029963379e+00 7.661792834662380092e-02 1.315743469479069977e-02 1.200000003610469934e-01
-3.036872898470133197e+00 1.532358555442590031e-01 1.680641572735320013e-02 2.399999989225340136e-01
-2.984513020910303460e+00 2.298542049056339909e-01 2.270179577106900062e-02 3.600006586823850108e-01
-2.932153143350473723e+00 3.064756043350910231e-01 3.538939513745260196e-02 3.941758387026230159e-01
-2.879793265790643542e+00 3.830896401552100206e-01 7.068997005698650360e-02 3.854407061320139771e-01
-2.827433388230813804e+00 4.597117517120630215e-01 1.135054959568739946e-01 3.767046528080439938e-01
-2.775073510670984067e+00 5.363212738828520010e-01 1.632403684259410015e-01 3.784913271990419936e-01
-2.722713633111153886e+00 6.129454252523940383e-01 2.192836316000789931e-01 4.013262490338829758e-01
-2.670353755551324149e+00 6.895621724449120249e-01 2.806139740574150054e-01 4.241582872677709948e-01
-2.617993877991494411e+00 7.661792811734610131e-01 3.469727536235520104e-01 4.450067536837620241e-01
-2.565634000431664230e+00 8.085747061675450098e-01 4.180742314516969760e-01 4.460178763196689933e-01
-2.513274122871834493e+00 7.825132900393719781e-01 4.917155510676209929e-01 4.450228546375479821e-01
-2.460914245312004756e+00 7.572947714748420323e-01 5.687588790220780011e-01 4.441488670241239833e-01
-2.408554367752174574e+00 7.312500173662469516e-01 6.471078880282760126e-01 4.446277598316210056e-01
-2.356194490192344837e+00 7.039735942978210259e-01 7.263714218257140143e-01 4.464156404418769819e-01
-2.303834612632515100e+00 6.742501379971570508e-01 8.059053320630650274e-01 4.482015484417180007e-01
-2.251474735072684918e+00 6.414814718349699518e-01 8.843787498277979608e-01 4.515300807202479727e-01
-2.199114857512855181e+00 6.064476785360509714e-01 9.613513552654470162e-01 4.556515252432700169e-01
-2.146754979953025444e+00 5.687632410844569719e-01 1.036440466460859966e+00 4.603335475140050148e-01
-2.094395102393195263e+00 5.269498023569070266e-01 1.107262461230309913e+00 4.647626034720719890e-01
-2.042035224833365525e+00 4.823911101848880056e-01 1.174128559711719921e+00 4.686351737235590065e-01
-1.989675347273535788e+00 4.354108253258540118e-01 1.236940758414120101e+00 4.722295019529559879e-01
-1.937315469713705829e+00 3.858080831952729883e-01 1.294561903923040047e+00 4.758238257881809985e-01
-1.884955592153875870e+00 3.334592346194270029e-01 1.344539909532159960e+00 4.766709752350140050e-01
-1.832595714594046132e+00 2.796467663442839813e-01 1.388765303576559917e+00 4.768975997992560001e-01
-1.780235837034216173e+00 2.245775074291850026e-01 1.427027717088630077e+00 4.765376926620920051e-01
-1.727875959474386214e+00 1.683741644412189986e-01 1.456502445812690061e+00 4.744659514460899952e-01
-1.675516081914556477e+00 1.119378178417060055e-01 1.477717911541289952e+00 4.702385679836300070e-01
-1.623156204354726517e+00 5.572672718722480184e-02 1.492085570319279908e+00 4.653375459072029985e-01
-1.570796326794896558e+00 -2.182922379237650081e-10 1.499519302076969929e+00 4.604365231033740180e-01
-1.518436449235066599e+00 -5.572672685310740143e-02 1.492085570363840041e+00 4.492461206717949795e-01
-1.466076571675236861e+00 -1.119378176889749971e-01 1.477717911591649891e+00 4.380557178352370018e-01
-1.413716694115406902e+00 -1.683741648815380021e-01 1.456502445581749905e+00 4.263613240351100120e-01
-1.361356816555576943e+00 -2.245775078695030069e-01 1.427027716857730111e+00 4.130541601973239940e-01
-1.308996938995747206e+00 -2.796467661236700097e-01 1.388765303736259948e+00 3.984662671308830117e-01
-1.256637061435917246e+00 -3.334592343731599962e-01 1.344539909762229923e+00 3.834987606602839882e-01
-1.204277183876087287e+00 -3.858080835185460078e-01 1.294561903547490012e+00 3.681889678979670122e-01
-1.151917306316257550e+00 -4.354108249631200023e-01 1.236940758835469945e+00 3.513638121684740101e-01
-1.099557428756427591e+00 -4.823911101212430275e-01 1.174128559801630001e+00 3.345386561995060126e-01
-1.047197551196597631e+00 -5.269498024917289580e-01 1.107262461001939924e+00 3.176391747218519912e-01
-9.948376736367678941e-01 -5.687632406409990349e-01 1.036440467211930061e+00 3.005910425188659807e-01
-9.424777960769379348e-01 -6.064476786075290171e-01 9.613513551218360043e-01 2.834753415226999862e-01
-8.901179185171080865e-01 -6.414814720950620108e-01 8.843787492149399743e-01 2.664669181753450133e-01
-8.377580409572782383e-01 -6.742501381520700221e-01 8.059053316494440011e-01 2.496115689622739886e-01
-7.853981633974482790e-01 -7.039735940417140014e-01 7.263714225120180279e-01 2.330540685037459925e-01
-7.330382858376184307e-01 -6.937500173644189916e-01 6.471078880337000072e-01 2.164965673869609919e-01
-6.806784082777884715e-01 -6.878957452452170163e-01 5.687588788747920399e-01 1.878829214328520125e-01
-6.283185307179586232e-01 -6.894096870501199570e-01 4.917155518487910104e-01 1.430341065729280048e-01
-5.759586531581287749e-01 -6.991263998569090532e-01 4.180742312143019834e-01 9.625686989038760577e-02
-5.235987755982988157e-01 -8.356069494498049588e-01 3.076643975756970240e-01 6.317796552287380241e-02
-5.130210225559090897e-01 -8.761201520286959754e-01 2.817316422922079844e-01 5.788940548876359699e-02
-5.024432695135193638e-01 -9.169876300033860117e-01 2.558280154262589923e-01 5.260755329949620002e-02
-4.918655164711295824e-01 -9.582266721870099646e-01 2.299487684927979947e-01 4.733360774129419940e-02
-4.812877634287397455e-01 -9.756507510156700036e-01 2.147779451690960129e-01 4.293961371797790083e-02
-4.707100103863500196e-01 -9.829984185317039991e-01 2.041932756065329979e-01 3.892123672102929671e-02
-4.601322573439602381e-01 -9.911174798132199593e-01 1.935128237862110134e-01 3.490514526778069893e-02
-4.495545043015704567e-01 -9.998975850154200318e-01 1.827787421793999889e-01 3.083741845351979996e-02
-4.389767512591789544e-01 -1.008985008355560042e+00 1.720446605725889921e-01 2.676553214281129911e-02
-4.283989982167891730e-01 -1.019534971782309896e+00 1.614213459231730041e-01 2.269364583210280173e-02
-4.178212451743993916e-01 -1.030286213047640009e+00 1.512522838742089981e-01 1.886484335299520171e-02
-4.072434921320096657e-01 -1.037520769433369905e+00 1.429949550116360046e-01 1.608970499436319923e-02
-3.966657390896198843e-01 -1.044755488679520061e+00 1.347375389593019890e-01 1.331448489290540035e-02
-3.860879860472301028e-01 -1.051990333104749986e+00 1.264800425413230012e-01 1.053919784550609931e-02
-3.755102330048403769e-01 -1.059225275819910106e+00 1.182224718877799979e-01 7.763855280950610060e-03
-3.649324799624505400e-01 -1.066460297122550083e+00 1.099648325207630006e-01 4.988466166645380215e-03
-3.543547269200608141e-01 -1.073695382246250052e+00 1.017071294279259935e-01 2.213037637387650202e-03
-3.437769738776710327e-01 -1.076919397301389969e+00 9.460755644610230330e-02 2.060944203363080057e-04
-3.331992208352812512e-01 -1.076133294233809989e+00 8.866615803252379802e-02 -1.033008408283770047e-03
-3.226214677928914698e-01 -1.075348487712880052e+00 8.272475868035600310e-02 -2.272274321261650003e-03
-3.120437147505017439e-01 -1.073480278058839943e+00 7.698426033564420568e-02 -3.413339155512769806e-03
-3.014659617081119070e-01 -1.067285133053800017e+00 7.204662003977149731e-02 -4.161668963905599747e-03
-2.908882086657221810e-01 -1.061108766988619889e+00 6.710763646255990533e-02 -4.909831036566119841e-03
-2.803104556233323996e-01 -1.054951248621639914e+00 6.216716759728019986e-02 -5.657856136448650292e-03
-2.697327025809426182e-01 -1.049776142691670078e+00 5.762425497950399850e-02 -5.893640722809189575e-03
-2.591549495385511159e-01 -1.045205232986009980e+00 5.310675469761309830e-02 -6.072497048192210256e-03
-2.485771964961613345e-01 -1.039946698746520015e+00 4.856122511791129831e-02 -6.251334982001279655e-03
-2.379994434537715531e-01 -1.034818456371439988e+00 4.420361895821080245e-02 -6.495244923627890160e-03
-2.274216904113817994e-01 -1.030439533190770085e+00 4.004866148303769940e-02 -6.810988531075939760e-03
-2.168439373689920457e-01 -1.026076667812219956e+00 3.590610222486229769e-02 -7.145949128943130009e-03
-2.062661843266022643e-01 -1.015309438845479972e+00 3.184808303027700238e-02 -8.804699421586369146e-03
-1.956884312842125107e-01 -9.895573153530200505e-01 2.798732400532080028e-02 -1.342632750930410068e-02
-1.851106782418227292e-01 -9.644624896036230188e-01 2.412656498036460165e-02 -1.795424000305210002e-02
-1.745329251994329478e-01 -9.380750241539640433e-01 2.026580595540839955e-02 -2.248215249679999875e-02
-1.639551721570429998e-01 -8.582678506652370309e-01 1.770927800656639864e-02 -3.257102805783949895e-02
-1.533774191146532462e-01 -7.792424845664990274e-01 1.515633650138709966e-02 -4.253098291868100123e-02
-1.427996660722632982e-01 -6.999806066178609898e-01 1.254881542869309974e-02 -5.256417750062580135e-02
-1.322219130298735168e-01 -6.188137032679189575e-01 1.121416568154569998e-02 -5.909397884335659823e-02
-1.216441599874835688e-01 -5.368355708291630002e-01 1.044644235720050031e-02 -6.391199225653219906e-02
-1.110664069450936348e-01 -4.548197135270219960e-01 9.677997487915349431e-03 -6.869007499028889629e-02
-1.004886539027038533e-01 -3.737915994012639964e-01 9.127872815259729933e-03 -7.272780849370140410e-02
-8.991090086031391926e-02 -2.942977267059270208e-01 8.903118463909459254e-03 -7.565505201016360648e-02
-7.933314781792397130e-02 -2.148024707935899946e-01 8.674318000610430415e-03 -7.858221873441829930e-02
-6.875539477553420376e-02 -1.354202854400609890e-01 8.456795636015489864e-03 -8.145018791720959328e-02
-5.817764173314425580e-02 -5.707172239767750038e-02 8.370693811761699757e-03 -8.378683518484859871e-02
-4.759988869075449519e-02 2.127869787603069857e-02 8.284464117747159309e-03 -8.614093679259400560e-02
-3.702213564836454723e-02 9.963215916335850519e-02 8.198102081796819832e-03 -8.855362750520849591e-02
-2.644438260597477622e-02 1.774546447868179944e-01 8.168765973418720336e-03 -9.073695151921949698e-02
-1.586662956358486296e-02 2.550911190532160200e-01 8.159978005919499289e-03 -9.284107983581929568e-02
-5.288876521194919335e-03 3.323489444251809810e-01 8.186736125635269562e-03 -9.482337832958870338e-02
5.288876521194919335e-03 4.092642906539259995e-01 8.234037038783810838e-03 -9.673931659825529827e-02
1.586662956358486296e-02 4.858577492135109921e-01 8.301879592434190103e-03 -9.858946075701810474e-02
2.644438260597477622e-02 5.620827032685610236e-01 8.403631662534610455e-03 -1.003429840480579982e-01
3.702213564836454723e-02 6.381280231325040520e-01 8.520764978753529728e-03 -1.020560746250259998e-01
4.759988869075449519e-02 7.136144310287050319e-01 8.675482978154359578e-03 -1.036766622130730064e-01
5.817764173314425580e-02 7.886540260371099897e-01 8.856633138784389403e-03 -1.052235506462100012e-01
6.875539477553420376e-02 8.633297915037060344e-01 9.059400846061540710e-03 -1.067101106957770024e-01
7.933314781792415171e-02 9.371041385419980330e-01 9.317875724626610220e-03 -1.080648609267659960e-01
8.991090086031391926e-02 1.010496426224289923e+00 9.596295199176060539e-03 -1.093674919908580040e-01
1.004886539027038533e-01 1.083040786302120084e+00 9.915767643551750762e-03 -1.105581409686210020e-01
1.110664069450938152e-01 1.154467187353479973e+00 1.030314542132410027e-02 -1.116148946800380043e-01
1.216441599874835688e-01 1.225149650645090071e+00 1.073592929398389968e-02 -1.125823236308659964e-01
1.322219130298733503e-01 1.294318999827390071e+00 1.122348574087319965e-02 -1.133536243641970059e-01
1.427996660722632982e-01 1.362345437738659903e+00 1.177608770132449953e-02 -1.139981900056079994e-01
1.533774191146532462e-01 1.427897872977879956e+00 1.247699658308770027e-02 -1.143709619104980035e-01
1.639551721570429998e-01 1.491736851649190010e+00 1.321939227713810061e-02 -1.145354175889059939e-01
1.745329251994329478e-01 1.554653355965899930e+00 1.398407998932760070e-02 -1.145875970116019965e-01
1.851106782418227292e-01 1.613456936268989894e+00 1.488216708300849934e-02 -1.141904290611849976e-01
1.956884312842125107e-01 1.670413697594129943e+00 1.584443793241660167e-02 -1.136116659696310011e-01
2.062661843266022643e-01 1.723940799015619918e+00 1.692579675070880058e-02 -1.126959054572120034e-01
2.168439373689920457e-01 1.771927559580400047e+00 1.824994584933109856e-02 -1.113409682951260055e-01
2.274216904113817994e-01 1.817006650708790083e+00 1.971502087349409973e-02 -1.097738607842359965e-01
2.379994434537715531e-01 1.851976706325719979e+00 2.172818674987430157e-02 -1.077559576810530051e-01
2.485771964961613345e-01 1.880281744776159947e+00 2.415839816132839962e-02 -1.056232617514529931e-01
2.591549495385511159e-01 1.897961689335750046e+00 2.721862350043039933e-02 -1.033135154638900044e-01
2.697327025809426182e-01 1.899883137857010018e+00 3.168974232207529690e-02 -1.011249363381390015e-01
2.803104556233323996e-01 1.891899100433469982e+00 3.702444475196210033e-02 -9.907412162656270560e-02
2.908882086657221810e-01 1.846523848759070052e+00 4.589887680568979778e-02 -9.787200818503699606e-02
3.014659617081119070e-01 1.801148597084679892e+00 5.477330885941750216e-02 -9.665567744196100486e-02
3.120437147505017439e-01 1.755773345410279962e+00 6.364774091314520654e-02 -9.542120438658080461e-02
3.226214677928914698e-01 1.699418189151840064e+00 7.494187215446419803e-02 -9.637062000077660506e-02
3.331992208352812512e-01 1.640318057329609891e+00 8.684092806437179735e-02 -9.786704816949699792e-02
3.437769738776710327e-01 1.581217925507379940e+00 9.873998397427939666e-02 -9.936143013726299322e-02
3.543547269200608141e-01 1.533521329333219940e+00 1.112704734500570003e-01 -1.021064474914070014e-01
3.649324799624505400e-01 1.497228267087109987e+00 1.244323963964630020e-01 -1.060941554911299933e-01
3.755102330048403769e-01 1.460935204841000035e+00 1.375943193428700029e-01 -1.100713890430569941e-01
3.860879860472301028e-01 1.424642142594900074e+00 1.507928084864260110e-01 -1.140398390930840028e-01
3.966657390896198843e-01 1.388349080348789899e+00 1.641080312819070131e-01 -1.180008529823679958e-01
4.072434921320096657e-01 1.352056018102679946e+00 1.773776663214819971e-01 -1.219555179332170031e-01
4.178212451743993916e-01 1.315762955856569993e+00 1.906139819878999997e-01 -1.259047214534199932e-01
4.283989982167891730e-01 1.287056131191750108e+00 2.048185552076189908e-01 -1.301862867376779864e-01
4.389767512591789544e-01 1.260175992238729892e+00 2.191085612760599877e-01 -1.345030027813740037e-01
4.495545043015704567e-01 1.236528510103990008e+00 2.333601560834520083e-01 -1.388172345294420018e-01
4.601322573439602381e-01 1.213346219693149930e+00 2.475474060400359999e-01 -1.431286185974570135e-01
4.707100103863500196e-01 1.190399905502979916e+00 2.618657082378709755e-01 -1.474367176508520061e-01
4.812877634287397455e-01 1.167847877761180042e+00 2.762170516391300179e-01 -1.517410008283290035e-01
4.918655164711295824e-01 1.146760702748790051e+00 2.911816514187069993e-01 -1.560804853360779898e-01
5.024432695135193638e-01 1.129074081301719934e+00 3.075825138713599860e-01 -1.605108139824910074e-01
5.130210225559090897e-01 1.111491227838270035e+00 3.238600128141970180e-01 -1.649411378104879977e-01
5.235987755982988157e-01 1.094135613825510056e+00 3.399875499033629955e-01 -1.693714535144149880e-01
5.759586531581287749e-01 1.031419524329939996e+00 4.180742312143019834e-01 -1.904906531789030133e-01
6.283185307179586232e-01 1.013796055654839989e+00 4.917155518487910104e-01 -2.100508079939840123e-01
6.806784082777884715e-01 1.006849673604119921e+00 5.687588788747920399e-01 -2.293862383437310082e-01
7.330382858376184307e-01 1.007142881949169899e+00 6.471078880337000072e-01 -2.468664751778190114e-01
7.853981633974482790e-01 1.005676562916729910e+00 7.263714225120180279e-01 -2.629638500773480159e-01
8.377580409572782383e-01 9.632144830743859520e-01 8.059053316494440011e-01 -2.790612232705930174e-01
8.901179185171080865e-01 9.164021029929450002e-01 8.843787492149399743e-01 -2.944699018655589917e-01
9.424777960769379348e-01 8.663538265821849604e-01 9.613513551218360043e-01 -3.095246385291379743e-01
9.948376736367678941e-01 8.125189152014270499e-01 1.036440467211930061e+00 -3.243124637723440173e-01
1.047197551196597631e+00 7.527854321310409880e-01 1.107262461001939924e+00 -3.388792910856209817e-01
1.099557428756427591e+00 6.891301573160619753e-01 1.174128559801630001e+00 -3.529599236090559811e-01
1.151917306316257550e+00 6.220154642330280037e-01 1.236940758835469945e+00 -3.667974586463930153e-01
1.204277183876087287e+00 5.511544050264940431e-01 1.294561903547490012e+00 -3.806349935143379937e-01
1.256637061435917246e+00 4.763703348187999786e-01 1.344539909762229923e+00 -3.933465121475990256e-01
1.308996938995747206e+00 3.994953801766700230e-01 1.388765303736259948e+00 -4.058036890891870141e-01
1.361356816555576943e+00 3.208250112421470179e-01 1.427027716857730111e+00 -4.180126277641429966e-01
1.413716694115406902e+00 2.405345212593389959e-01 1.456502445581749905e+00 -4.294729386268960059e-01
1.466076571675236861e+00 1.599111681271060126e-01 1.477717911591649891e+00 -4.399905330548590232e-01
1.518436449235066599e+00 7.960960979015309358e-02 1.492085570363840041e+00 -4.502135282805739824e-01
1.570796326794896558e+00 3.118459212684019935e-10 1.499519302076969929e+00 -4.604365231071629871e-01
1.623156204354726517e+00 -5.572672718722460061e-02 1.492085570319279908e+00 -4.653375459072029985e-01
1.675516081914556477e+00 -1.119378178417070047e-01 1.477717911541289952e+00 -4.702385679836300070e-01
1.727875959474386214e+00 -1.683741644412189986e-01 1.456502445812690061e+00 -4.744659514460899952e-01
1.780235837034216173e+00 -2.245775074291850026e-01 1.427027717088630077e+00 -4.765376926620920051e-01
1.832595714594046132e+00 -2.796467663442839813e-01 1.388765303576559917e+00 -4.768975997992560001e-01
1.884955592153875870e+00 -3.334592346194260037e-01 1.344539909532159960e+00 -4.766709752350140050e-01
1.937315469713705829e+00 -3.858080831952739875e-01 1.294561903923040047e+00 -4.758238257881809985e-01
1.989675347273535788e+00 -4.354108253258540118e-01 1.236940758414120101e+00 -4.722295019529559879e-01
2.042035224833365525e+00 -4.823911101848870064e-01 1.174128559711719921e+00 -4.686351737235590065e-01
2.094395102393195263e+00 -5.269498023569070266e-01 1.107262461230309913e+00 -4.647626034720719890e-01
2.146754979953025444e+00 -5.687632410844569719e-01 1.036440466460859966e+00 -4.603335475140050148e-01
2.199114857512855181e+00 -6.064476785360509714e-01 9.613513552654470162e-01 -4.556515252432700169e-01
2.251474735072684918e+00 -6.414814718349709510e-01 8.843787498277979608e-01 -4.515300807202479727e-01
2.303834612632515100e+00 -6.742501379971570508e-01 8.059053320630640282e-01 -4.482015484417180007e-01
2.356194490192344837e+00 -7.039735942978210259e-01 7.263714218257140143e-01 -4.464156404418769819e-01
2.408554367752174574e+00 -7.312500173662469516e-01 6.471078880282760126e-01 -4.446277598316210056e-01
2.460914245312004756e+00 -7.572947714748420323e-01 5.687588790220770019e-01 -4.441488670241239833e-01
2.513274122871834493e+00 -7.825132900393719781e-01 4.917155510676209929e-01 -4.450228546375479821e-01
2.565634000431664230e+00 -8.085747061675460090e-01 4.180742314516969760e-01 -4.460178763196689933e-01
2.617993877991494411e+00 -7.661792811734600139e-01 3.469727536235510112e-01 -4.450067536837620241e-01
2.670353755551324149e+00 -6.895613529698100264e-01 2.806133013283240163e-01 -4.241580430651499811e-01
2.722713633111153886e+00 -6.129434247661600388e-01 2.192820963355510133e-01 -4.013256528736989792e-01
2.775073510670984067e+00 -5.363254965625100512e-01 1.632433626207890065e-01 -3.784925856272700062e-01
2.827433388230813804e+00 -4.597075683588600081e-01 1.135030689688990013e-01 -3.967051299043919954e-01
2.879793265790643542e+00 -3.830896401552100206e-01 7.068997005698669789e-02 -4.354407062985399812e-01
