# Angle of attack [rad] 	 Lift coefficient [-] 	 Drag coefficient [-] 	 Moment coefficient [-]
-3.141593e+00 0.000000e+00 2.866679e-01 0.000000e+00
-3.089233e+00 1.039934e-01 2.980995e-01 1.098705e-01
-3.036873e+00 2.089395e-01 3.076324e-01 2.207476e-01
-2.984513e+00 3.134099e-01 3.167746e-01 3.311221e-01
-2.932153e+00 3.850544e-01 3.342344e-01 3.531010e-01
-2.879793e+00 4.404121e-01 3.554195e-01 3.308832e-01
-2.827433e+00 4.958855e-01 3.759316e-01 3.086651e-01
-2.775074e+00 5.306263e-01 3.988463e-01 2.911444e-01
-2.722714e+00 5.238978e-01 4.270142e-01 2.830182e-01
-2.670354e+00 5.174117e-01 4.538846e-01 2.748921e-01
-2.617994e+00 5.112084e-01 4.790707e-01 2.667659e-01
-2.565634e+00 5.077226e-01 5.146150e-01 2.698381e-01
-2.513274e+00 5.043435e-01 5.719967e-01 2.729102e-01
-2.460914e+00 5.010816e-01 6.293788e-01 2.759825e-01
-2.408554e+00 4.924537e-01 6.887223e-01 2.809344e-01
-2.356194e+00 4.811365e-01 7.490464e-01 2.868263e-01
-2.303835e+00 4.698670e-01 8.093712e-01 2.927183e-01
-2.251475e+00 4.549385e-01 8.680677e-01 2.984866e-01
-2.199115e+00 4.326130e-01 9.235077e-01 3.040077e-01
-2.146755e+00 4.103054e-01 9.745808e-01 3.095287e-01
-2.094395e+00 3.880194e-01 1.024557e+00 3.150498e-01
-2.042035e+00 3.553282e-01 1.062949e+00 3.183129e-01
-1.989675e+00 3.226435e-01 1.101340e+00 3.215760e-01
-1.937315e+00 2.899678e-01 1.139732e+00 3.248391e-01
-1.884956e+00 2.522614e-01 1.166751e+00 3.257847e-01
-1.832596e+00 2.120374e-01 1.188084e+00 3.255715e-01
-1.780236e+00 1.718170e-01 1.209417e+00 3.253583e-01
-1.727876e+00 1.305057e-01 1.223938e+00 3.237914e-01
-1.675516e+00 8.700362e-02 1.224835e+00 3.195168e-01
-1.623156e+00 4.350186e-02 1.225731e+00 3.152422e-01
-1.570796e+00 2.715075e-07 1.226628e+00 3.075417e-01
-1.518436e+00 -4.350182e-02 1.225731e+00 3.065003e-01
-1.466077e+00 -8.700374e-02 1.224835e+00 3.036426e-01
-1.413717e+00 -1.305053e-01 1.223938e+00 2.999801e-01
-1.361357e+00 -1.718168e-01 1.209417e+00 2.937329e-01
-1.308997e+00 -2.120377e-01 1.188084e+00 2.861933e-01
-1.256637e+00 -2.522612e-01 1.166751e+00 2.786537e-01
-1.204277e+00 -2.899675e-01 1.139732e+00 2.701310e-01
-1.151917e+00 -3.226436e-01 1.101340e+00 2.596422e-01
-1.099557e+00 -3.553284e-01 1.062948e+00 2.491533e-01
-1.047198e+00 -3.880196e-01 1.024556e+00 2.386644e-01
-9.948377e-01 -4.103055e-01 9.745805e-01 2.265117e-01
-9.424778e-01 -4.326131e-01 9.235073e-01 2.143589e-01
-8.901179e-01 -4.549386e-01 8.680673e-01 2.022060e-01
-8.377580e-01 -4.698670e-01 8.093712e-01 1.896666e-01
-7.853982e-01 -4.811364e-01 7.490471e-01 1.769340e-01
-7.330383e-01 -4.924537e-01 6.887223e-01 1.642012e-01
-6.806784e-01 -5.010816e-01 6.293788e-01 1.514819e-01
-6.283185e-01 -5.043435e-01 5.719965e-01 1.387893e-01
-5.759587e-01 -5.077226e-01 5.146154e-01 1.260970e-01
-5.235988e-01 -5.112085e-01 4.790705e-01 1.134044e-01
-5.130210e-01 -5.124366e-01 4.741420e-01 1.101331e-01
-5.024433e-01 -5.136778e-01 4.691281e-01 1.064168e-01
-4.918655e-01 -5.149317e-01 4.640338e-01 1.027307e-01
-4.812878e-01 -5.161979e-01 4.588633e-01 9.907548e-02
-4.707100e-01 -5.174759e-01 4.536208e-01 9.545171e-02
-4.601323e-01 -5.187654e-01 4.483104e-01 9.186013e-02
-4.495545e-01 -5.200661e-01 4.429355e-01 8.830146e-02
-4.389768e-01 -5.213775e-01 4.374997e-01 8.477643e-02
-4.283990e-01 -5.226994e-01 4.320059e-01 8.128571e-02
-4.178212e-01 -5.240314e-01 4.264571e-01 7.783004e-02
-4.072435e-01 -5.253733e-01 4.208559e-01 7.441020e-02
-3.966657e-01 -5.267247e-01 4.152048e-01 7.102697e-02
-3.860880e-01 -5.280854e-01 4.095064e-01 6.768118e-02
-3.755102e-01 -5.294551e-01 4.037625e-01 6.437357e-02
-3.649325e-01 -5.308336e-01 3.979756e-01 6.110509e-02
-3.543547e-01 -5.322206e-01 3.921475e-01 5.787665e-02
-3.437770e-01 -5.250419e-01 3.867341e-01 5.367404e-02
-3.331992e-01 -5.093250e-01 3.817128e-01 4.848443e-02
-3.226215e-01 -4.936550e-01 3.766208e-01 4.332266e-02
-3.120437e-01 -4.780330e-01 3.714565e-01 3.819444e-02
-3.014660e-01 -4.624605e-01 3.662183e-01 3.310742e-02
-2.908882e-01 -4.469405e-01 3.609049e-01 2.807238e-02
-2.803105e-01 -4.314753e-01 3.555151e-01 2.310373e-02
-2.697327e-01 -4.160683e-01 3.500476e-01 1.822204e-02
-2.591549e-01 -4.007214e-01 3.445006e-01 1.354850e-02
-2.485772e-01 -3.854367e-01 3.388723e-01 9.500166e-03
-2.379994e-01 -3.702245e-01 3.331646e-01 5.683813e-03
-2.274217e-01 -3.550694e-01 3.273666e-01 2.218868e-03
-2.168439e-01 -3.399997e-01 3.214892e-01 -1.518854e-03
-2.062662e-01 -3.249956e-01 3.155184e-01 -7.392514e-03
-1.956884e-01 -3.100776e-01 3.094610e-01 -1.326570e-02
-1.851107e-01 -2.952455e-01 3.028026e-01 -1.913933e-02
-1.745329e-01 -2.804948e-01 2.949413e-01 -2.501259e-02
-1.639552e-01 -2.533784e-01 2.854983e-01 -2.411108e-02
-1.533774e-01 -2.264556e-01 2.758398e-01 -2.321517e-02
-1.427997e-01 -1.997803e-01 2.659602e-01 -2.231161e-02
-1.322219e-01 -1.733898e-01 2.558489e-01 -2.139696e-02
-1.216442e-01 -1.473452e-01 2.454830e-01 -2.036795e-02
-1.110664e-01 -1.217051e-01 2.348345e-01 -1.932756e-02
-1.004887e-01 -9.845835e-02 2.239103e-01 -1.828711e-02
-8.991090e-02 -7.698047e-02 2.126782e-01 -1.725468e-02
-7.933315e-02 -5.631829e-02 2.011061e-01 -1.621568e-02
-6.875539e-02 -3.673022e-02 1.891865e-01 -1.517509e-02
-5.817764e-02 -1.629095e-02 1.784165e-01 -1.456334e-02
-4.759989e-02 2.356756e-02 1.750582e-01 -1.576378e-02
-3.702214e-02 9.150643e-02 1.760561e-01 -1.782450e-02
-2.644438e-02 1.594515e-01 1.770511e-01 -2.039106e-02
-1.586663e-02 2.234036e-01 1.780261e-01 -2.274936e-02
-5.288877e-03 2.842379e-01 1.789384e-01 -2.513686e-02
5.288877e-03 3.450744e-01 1.799256e-01 -2.751486e-02
1.586663e-02 4.059131e-01 1.809102e-01 -2.987520e-02
2.644438e-02 4.603916e-01 1.818696e-01 -3.225312e-02
3.702214e-02 5.261594e-01 1.818672e-01 -3.480495e-02
4.759989e-02 6.008377e-01 1.815068e-01 -3.742605e-02
5.817764e-02 6.755299e-01 1.811460e-01 -4.003044e-02
6.875539e-02 7.502559e-01 1.807168e-01 -4.263503e-02
7.933315e-02 8.249662e-01 1.803473e-01 -4.524991e-02
8.991090e-02 8.997126e-01 1.799768e-01 -4.785452e-02
1.004887e-01 9.679687e-01 1.795687e-01 -5.066995e-02
1.110664e-01 1.025363e+00 1.792380e-01 -5.385319e-02
1.216442e-01 1.081522e+00 1.788418e-01 -5.708121e-02
1.322219e-01 1.138357e+00 1.785138e-01 -6.027990e-02
1.427997e-01 1.200345e+00 1.781556e-01 -6.326982e-02
1.533774e-01 1.252290e+00 1.785430e-01 -6.649224e-02
1.639552e-01 1.276948e+00 1.805740e-01 -7.030253e-02
1.745329e-01 1.296349e+00 1.829861e-01 -7.425746e-02
1.851107e-01 7.614281e-01 2.158523e-01 -6.425071e-02
1.956884e-01 6.157184e-01 2.481061e-01 -2.231043e-02
2.062662e-01 5.896460e-01 2.719907e-01 -2.035066e-02
2.168439e-01 8.400785e-01 2.921575e-01 -2.379984e-02
2.274217e-01 9.365404e-01 3.089752e-01 -2.651332e-02
2.379994e-01 9.307932e-01 3.214559e-01 -2.793396e-02
2.485772e-01 9.215356e-01 3.322632e-01 -2.922698e-02
2.591549e-01 8.799202e-01 3.421952e-01 -3.055127e-02
2.697327e-01 8.391122e-01 3.508905e-01 -3.172890e-02
2.803105e-01 8.058660e-01 3.587133e-01 -3.324268e-02
2.908882e-01 8.008473e-01 3.636626e-01 -3.826204e-02
3.014660e-01 7.947278e-01 3.684733e-01 -4.362534e-02
3.120437e-01 7.872275e-01 3.731228e-01 -4.941176e-02
3.226215e-01 7.797610e-01 3.777477e-01 -5.530907e-02
3.331992e-01 7.723229e-01 3.823507e-01 -6.130533e-02
3.437770e-01 7.649125e-01 3.869351e-01 -6.738855e-02
3.543547e-01 7.602279e-01 3.921475e-01 -7.235530e-02
3.649325e-01 7.582562e-01 3.979756e-01 -7.617415e-02
3.755102e-01 7.562966e-01 4.037625e-01 -8.003569e-02
3.860880e-01 7.543497e-01 4.095064e-01 -8.393892e-02
3.966657e-01 7.524158e-01 4.152048e-01 -8.788288e-02
4.072435e-01 7.504951e-01 4.208559e-01 -9.186674e-02
4.178212e-01 7.485882e-01 4.264571e-01 -9.588965e-02
4.283990e-01 7.466955e-01 4.320059e-01 -9.995076e-02
4.389768e-01 7.448174e-01 4.374997e-01 -1.040493e-01
4.495545e-01 7.429542e-01 4.429355e-01 -1.081843e-01
4.601323e-01 7.411066e-01 4.483104e-01 -1.123553e-01
4.707100e-01 7.392750e-01 4.536208e-01 -1.165614e-01
4.812878e-01 7.374599e-01 4.588633e-01 -1.208018e-01
4.918655e-01 7.356618e-01 4.640338e-01 -1.250758e-01
5.024433e-01 7.338814e-01 4.691281e-01 -1.293827e-01
5.130210e-01 7.321192e-01 4.741420e-01 -1.337218e-01
5.235988e-01 7.303759e-01 4.790705e-01 -1.380925e-01
5.759587e-01 7.253625e-01 5.146154e-01 -1.544033e-01
6.283185e-01 7.205019e-01 5.719965e-01 -1.681913e-01
6.806784e-01 7.158094e-01 6.293788e-01 -1.813749e-01
7.330383e-01 7.034332e-01 6.887223e-01 -1.934185e-01
7.853982e-01 6.872041e-01 7.490471e-01 -2.048923e-01
8.377580e-01 6.710412e-01 8.093712e-01 -2.163659e-01
8.901179e-01 6.496720e-01 8.680673e-01 -2.272880e-01
9.424778e-01 6.177818e-01 9.235073e-01 -2.371072e-01
9.948377e-01 5.859170e-01 9.745805e-01 -2.469262e-01
1.047198e+00 5.540829e-01 1.024556e+00 -2.567452e-01
1.099557e+00 5.074742e-01 1.062948e+00 -2.646113e-01
1.151917e+00 4.608754e-01 1.101340e+00 -2.724774e-01
1.204277e+00 4.142903e-01 1.139732e+00 -2.803434e-01
1.256637e+00 3.604555e-01 1.166751e+00 -2.866577e-01
1.308997e+00 3.029922e-01 1.188084e+00 -2.921960e-01
1.361357e+00 2.455324e-01 1.209417e+00 -2.977344e-01
1.413717e+00 1.865071e-01 1.223938e+00 -3.023808e-01
1.466077e+00 1.243384e-01 1.224835e+00 -3.052431e-01
1.518436e+00 6.216910e-02 1.225731e+00 -3.073005e-01
1.570796e+00 -2.715075e-07 1.226628e+00 -3.075417e-01
1.623156e+00 -4.350186e-02 1.225731e+00 -3.152422e-01
1.675516e+00 -8.700362e-02 1.224835e+00 -3.195168e-01
1.727876e+00 -1.305057e-01 1.223938e+00 -3.237914e-01
1.780236e+00 -1.718170e-01 1.209417e+00 -3.253583e-01
1.832596e+00 -2.120374e-01 1.188084e+00 -3.255715e-01
1.884956e+00 -2.522614e-01 1.166751e+00 -3.257847e-01
1.937315e+00 -2.899678e-01 1.139732e+00 -3.248391e-01
1.989675e+00 -3.226435e-01 1.101340e+00 -3.215760e-01
2.042035e+00 -3.553282e-01 1.062949e+00 -3.183129e-01
2.094395e+00 -3.880194e-01 1.024557e+00 -3.150498e-01
2.146755e+00 -4.103054e-01 9.745808e-01 -3.095287e-01
2.199115e+00 -4.326130e-01 9.235077e-01 -3.040077e-01
2.251475e+00 -4.549385e-01 8.680677e-01 -2.984866e-01
2.303835e+00 -4.698670e-01 8.093712e-01 -2.927183e-01
2.356194e+00 -4.811365e-01 7.490464e-01 -2.868263e-01
2.408554e+00 -4.924537e-01 6.887223e-01 -2.809344e-01
2.460914e+00 -5.010816e-01 6.293788e-01 -2.759825e-01
2.513274e+00 -5.043435e-01 5.719967e-01 -2.729102e-01
2.565634e+00 -5.077226e-01 5.146150e-01 -2.698381e-01
2.617994e+00 -5.112084e-01 4.790707e-01 -2.667659e-01
2.670354e+00 -5.174117e-01 4.538846e-01 -2.748921e-01
2.722714e+00 -5.238978e-01 4.270142e-01 -2.830182e-01
2.775074e+00 -5.306263e-01 3.988463e-01 -2.911444e-01
2.827433e+00 -4.958855e-01 3.759316e-01 -3.270607e-01
2.879793e+00 -4.404121e-01 3.554195e-01 -3.768724e-01
2.932153e+00 -3.850544e-01 3.342344e-01 -4.266836e-01
2.984513e+00 -3.134099e-01 3.167746e-01 -4.139026e-01
3.036873e+00 -2.089395e-01 3.076324e-01 -2.759345e-01
3.089233e+00 -1.039934e-01 2.980995e-01 -1.373382e-01
3.141593e+00 0.000000e+00 2.866679e-01 0.000000e+00
