# Angle of attack [rad] 	 Lift coefficient [-] 	 Drag coefficient [-] 	 Moment coefficient [-]
-3.141593e+00 0.000000e+00 4.676844e-02 0.000000e+00
-3.089233e+00 1.094089e-01 4.676844e-02 1.194493e-01
-3.036873e+00 2.198279e-01 5.612208e-02 2.399998e-01
-2.984513e+00 3.297426e-01 8.418329e-02 3.600004e-01
-2.932153e+00 4.396529e-01 1.122474e-01 3.176570e-01
-2.879793e+00 5.495689e-01 1.403131e-01 1.941435e-01
-2.827433e+00 6.594363e-01 1.683796e-01 7.062921e-02
-2.775074e+00 7.303005e-01 2.054880e-01 -1.103856e-02
-2.722714e+00 7.235448e-01 2.606798e-01 -8.603569e-03
-2.670354e+00 7.169701e-01 3.158715e-01 -6.036413e-03
-2.617994e+00 7.103953e-01 3.710634e-01 -3.530550e-03
-2.565634e+00 6.968215e-01 4.419243e-01 1.156226e-02
-2.513274e+00 6.832474e-01 5.127854e-01 2.665515e-02
-2.460914e+00 6.696729e-01 5.836471e-01 4.174818e-02
-2.408554e+00 6.517017e-01 6.575095e-01 5.710322e-02
-2.356194e+00 6.315323e-01 7.328723e-01 7.258930e-02
-2.303835e+00 6.113621e-01 8.082359e-01 8.807563e-02
-2.251475e+00 5.873627e-01 8.820604e-01 1.037028e-01
-2.199115e+00 5.557050e-01 9.528067e-01 1.196113e-01
-2.146755e+00 5.240471e-01 1.023552e+00 1.355198e-01
-2.094395e+00 4.923891e-01 1.094298e+00 1.514283e-01
-2.042035e+00 4.494644e-01 1.151858e+00 1.665191e-01
-1.989675e+00 4.065398e-01 1.209418e+00 1.816095e-01
-1.937315e+00 3.636150e-01 1.266977e+00 1.966994e-01
-1.884956e+00 3.153358e-01 1.311092e+00 2.101440e-01
-1.832596e+00 2.643793e-01 1.348485e+00 2.227658e-01
-1.780236e+00 2.134229e-01 1.385878e+00 2.353872e-01
-1.727876e+00 1.615067e-01 1.415032e+00 2.466532e-01
-1.675516e+00 1.076713e-01 1.427708e+00 2.552080e-01
-1.623156e+00 5.383580e-02 1.440384e+00 2.637625e-01
-1.570796e+00 3.360045e-07 1.453060e+00 2.723165e-01
-1.518436e+00 -5.383574e-02 1.440384e+00 2.759759e-01
-1.466077e+00 -1.076714e-01 1.427708e+00 2.796375e-01
-1.413717e+00 -1.615063e-01 1.415032e+00 2.833035e-01
-1.361357e+00 -2.134226e-01 1.385879e+00 2.836739e-01
-1.308997e+00 -2.643797e-01 1.348485e+00 2.823973e-01
-1.256637e+00 -3.153356e-01 1.311092e+00 2.811200e-01
-1.204277e+00 -3.636146e-01 1.266977e+00 2.785792e-01
-1.151917e+00 -4.065399e-01 1.209417e+00 2.735119e-01
-1.099557e+00 -4.494647e-01 1.151857e+00 2.684431e-01
-1.047198e+00 -4.923893e-01 1.094297e+00 2.633728e-01
-9.948377e-01 -5.240473e-01 1.023552e+00 2.564588e-01
-9.424778e-01 -5.557052e-01 9.528062e-01 2.495428e-01
-8.901179e-01 -5.873629e-01 8.820600e-01 2.426243e-01
-8.377580e-01 -6.130815e-01 8.082457e-01 2.359147e-01
-7.853982e-01 -6.358307e-01 7.328976e-01 2.293067e-01
-7.330383e-01 -6.534212e-01 6.575194e-01 2.241476e-01
-6.806784e-01 -6.700671e-01 5.825647e-01 2.195835e-01
-6.283185e-01 -6.840823e-01 5.093047e-01 2.171925e-01
-5.759587e-01 -6.970484e-01 4.387551e-01 2.177465e-01
-5.235988e-01 -7.103953e-01 3.710629e-01 2.215798e-01
-5.130210e-01 -7.134527e-01 3.580775e-01 2.232384e-01
-5.024433e-01 -7.165100e-01 3.450921e-01 2.248970e-01
-4.918655e-01 -7.195674e-01 3.321067e-01 2.265557e-01
-4.812878e-01 -7.230152e-01 3.195387e-01 2.288429e-01
-4.707100e-01 -7.266303e-01 3.071495e-01 2.313995e-01
-4.601323e-01 -7.302455e-01 2.947604e-01 2.339562e-01
-4.495545e-01 -7.342094e-01 2.826344e-01 2.369824e-01
-4.389768e-01 -7.386964e-01 2.709031e-01 2.407128e-01
-4.283990e-01 -7.431835e-01 2.591718e-01 2.444432e-01
-4.178212e-01 -7.477998e-01 2.475120e-01 2.483304e-01
-4.072435e-01 -7.535801e-01 2.364952e-01 2.536292e-01
-3.966657e-01 -7.593603e-01 2.254784e-01 2.591388e-01
-3.860880e-01 -7.651406e-01 2.144616e-01 2.644778e-01
-3.755102e-01 -8.033027e-01 2.085481e-01 2.493016e-01
-3.649325e-01 -8.508240e-01 2.039108e-01 2.285139e-01
-3.543547e-01 -8.977684e-01 1.992735e-01 2.075751e-01
-3.437770e-01 -9.446782e-01 1.946375e-01 1.865388e-01
-3.331992e-01 -9.915551e-01 1.900027e-01 1.654418e-01
-3.226215e-01 -1.038427e+00 1.854805e-01 1.443321e-01
-3.120437e-01 -1.085296e+00 1.809505e-01 1.233576e-01
-3.014660e-01 -1.132166e+00 1.761460e-01 1.024503e-01
-2.908882e-01 -1.179035e+00 1.714739e-01 8.154255e-02
-2.803105e-01 -1.225903e+00 1.668489e-01 6.063456e-02
-2.697327e-01 -1.245406e+00 1.601475e-01 4.446310e-02
-2.591549e-01 -1.247810e+00 1.521640e-01 3.089294e-02
-2.485772e-01 -1.208027e+00 1.410268e-01 2.379048e-02
-2.379994e-01 -1.161755e+00 1.294496e-01 1.567623e-02
-2.274217e-01 -1.111151e+00 1.175780e-01 6.589247e-03
-2.168439e-01 -1.056922e+00 1.061280e-01 -3.711828e-03
-2.062662e-01 -1.002728e+00 9.533681e-02 -1.336962e-02
-1.956884e-01 -9.490766e-01 8.603210e-02 -2.138729e-02
-1.851107e-01 -8.935818e-01 7.761068e-02 -2.807319e-02
-1.745329e-01 -8.369859e-01 6.966491e-02 -3.403477e-02
-1.639552e-01 -7.931664e-01 5.771675e-02 -4.153955e-02
-1.533774e-01 -7.591698e-01 4.451598e-02 -4.848198e-02
-1.427997e-01 -7.421055e-01 2.911706e-02 -5.439262e-02
-1.322219e-01 -6.996146e-01 2.143825e-02 -5.746587e-02
-1.216442e-01 -6.446088e-01 1.728744e-02 -5.949243e-02
-1.110664e-01 -5.588023e-01 1.575510e-02 -6.430447e-02
-1.004887e-01 -4.737650e-01 1.435024e-02 -6.892492e-02
-8.991090e-02 -3.898944e-01 1.314197e-02 -7.326032e-02
-7.933315e-02 -3.071663e-01 1.226371e-02 -7.731904e-02
-6.875539e-02 -2.250542e-01 1.152661e-02 -8.124666e-02
-5.817764e-02 -1.451727e-01 1.111816e-02 -8.480486e-02
-4.759989e-02 -6.644818e-02 1.082133e-02 -8.814619e-02
-3.702214e-02 1.124953e-02 1.061399e-02 -9.127994e-02
-2.644438e-02 8.856703e-02 1.044799e-02 -9.429424e-02
-1.586663e-02 1.662133e-01 1.033474e-02 -9.725952e-02
-5.288877e-03 2.456818e-01 1.041361e-02 -1.001167e-01
5.288877e-03 3.244938e-01 1.050516e-02 -1.028325e-01
1.586663e-02 4.026896e-01 1.060290e-02 -1.054096e-01
2.644438e-02 4.804506e-01 1.060861e-02 -1.077570e-01
3.702214e-02 5.576550e-01 1.063641e-02 -1.100075e-01
4.759989e-02 6.328541e-01 1.082226e-02 -1.120108e-01
5.817764e-02 7.078291e-01 1.098719e-02 -1.138134e-01
6.875539e-02 7.827261e-01 1.113136e-02 -1.154336e-01
7.933315e-02 8.567250e-01 1.131555e-02 -1.168804e-01
8.991090e-02 9.300328e-01 1.152084e-02 -1.182197e-01
1.004887e-01 1.001543e+00 1.177955e-02 -1.192932e-01
1.110664e-01 1.071647e+00 1.208084e-02 -1.201148e-01
1.216442e-01 1.140818e+00 1.240891e-02 -1.207695e-01
1.322219e-01 1.207473e+00 1.278414e-02 -1.209842e-01
1.427997e-01 1.272931e+00 1.319711e-02 -1.210404e-01
1.533774e-01 1.336317e+00 1.368798e-02 -1.207980e-01
1.639552e-01 1.395802e+00 1.436346e-02 -1.198142e-01
1.745329e-01 1.452010e+00 1.511147e-02 -1.184171e-01
1.851107e-01 1.496363e+00 1.620528e-02 -1.158425e-01
1.956884e-01 1.532231e+00 1.759456e-02 -1.126699e-01
2.062662e-01 1.552337e+00 1.952736e-02 -1.083874e-01
2.168439e-01 1.404853e+00 3.668379e-02 -1.107055e-01
2.274217e-01 1.196419e+00 5.963411e-02 -1.155245e-01
2.379994e-01 1.136943e+00 6.908108e-02 -1.137925e-01
2.485772e-01 1.088548e+00 7.815699e-02 -1.122230e-01
2.591549e-01 1.058131e+00 8.670254e-02 -1.108692e-01
2.697327e-01 1.037628e+00 9.518132e-02 -1.100064e-01
2.803105e-01 1.021287e+00 1.036722e-01 -1.093499e-01
2.908882e-01 1.012677e+00 1.124718e-01 -1.095002e-01
3.014660e-01 1.008628e+00 1.216127e-01 -1.101969e-01
3.120437e-01 1.010152e+00 1.311705e-01 -1.115615e-01
3.226215e-01 1.024873e+00 1.427178e-01 -1.147281e-01
3.331992e-01 1.042517e+00 1.548279e-01 -1.185105e-01
3.437770e-01 1.058040e+00 1.673101e-01 -1.232292e-01
3.543547e-01 1.070181e+00 1.794159e-01 -1.284282e-01
3.649325e-01 1.078941e+00 1.911453e-01 -1.341456e-01
3.755102e-01 1.087701e+00 2.028747e-01 -1.398761e-01
3.860880e-01 1.093057e+00 2.144616e-01 -1.456127e-01
3.966657e-01 1.084800e+00 2.254784e-01 -1.513826e-01
4.072435e-01 1.076543e+00 2.364952e-01 -1.571616e-01
4.178212e-01 1.068287e+00 2.475120e-01 -1.629940e-01
4.283990e-01 1.061691e+00 2.591718e-01 -1.680429e-01
4.389768e-01 1.055280e+00 2.709031e-01 -1.730047e-01
4.495545e-01 1.048870e+00 2.826344e-01 -1.779665e-01
4.601323e-01 1.043206e+00 2.947604e-01 -1.825734e-01
4.707100e-01 1.038041e+00 3.071495e-01 -1.869437e-01
4.812878e-01 1.032875e+00 3.195387e-01 -1.913140e-01
4.918655e-01 1.027950e+00 3.321067e-01 -1.955609e-01
5.024433e-01 1.023585e+00 3.450921e-01 -1.995200e-01
5.130210e-01 1.019220e+00 3.580775e-01 -2.034792e-01
5.235988e-01 1.014855e+00 3.710629e-01 -2.074383e-01
5.759587e-01 9.957820e-01 4.387551e-01 -2.252486e-01
6.283185e-01 9.772613e-01 5.093047e-01 -2.418562e-01
6.806784e-01 9.572392e-01 5.825647e-01 -2.573403e-01
7.330383e-01 9.334594e-01 6.575194e-01 -2.722029e-01
7.853982e-01 9.083300e-01 7.328976e-01 -2.868981e-01
8.377580e-01 8.758306e-01 8.082457e-01 -3.010101e-01
8.901179e-01 8.390892e-01 8.820600e-01 -3.148647e-01
9.424778e-01 7.938635e-01 9.528062e-01 -3.281972e-01
9.948377e-01 7.486382e-01 1.023552e+00 -3.415328e-01
1.047198e+00 7.034130e-01 1.094297e+00 -3.548709e-01
1.099557e+00 6.420919e-01 1.151857e+00 -3.669032e-01
1.151917e+00 5.807707e-01 1.209417e+00 -3.789375e-01
1.204277e+00 5.194495e-01 1.266977e+00 -3.909735e-01
1.256637e+00 4.504796e-01 1.311092e+00 -4.017645e-01
1.308997e+00 3.776854e-01 1.348485e+00 -4.119337e-01
1.361357e+00 3.048898e-01 1.385879e+00 -4.221043e-01
1.413717e+00 2.307236e-01 1.415032e+00 -4.314196e-01
1.466077e+00 1.538164e-01 1.427708e+00 -4.390235e-01
1.518436e+00 7.690820e-02 1.440384e+00 -4.466280e-01
1.570796e+00 -3.360045e-07 1.453060e+00 -4.542332e-01
1.623156e+00 -5.383580e-02 1.440384e+00 -4.578858e-01
1.675516e+00 -1.076713e-01 1.427708e+00 -4.615387e-01
1.727876e+00 -1.615067e-01 1.415032e+00 -4.651919e-01
1.780236e+00 -2.134229e-01 1.385878e+00 -4.655616e-01
1.832596e+00 -2.643793e-01 1.348485e+00 -4.642897e-01
1.884956e+00 -3.153358e-01 1.311092e+00 -4.630175e-01
1.937315e+00 -3.636150e-01 1.266977e+00 -4.604829e-01
1.989675e+00 -4.065398e-01 1.209418e+00 -4.554236e-01
2.042035e+00 -4.494644e-01 1.151858e+00 -4.503641e-01
2.094395e+00 -4.923891e-01 1.094298e+00 -4.453045e-01
2.146755e+00 -5.240471e-01 1.023552e+00 -4.384043e-01
2.199115e+00 -5.557050e-01 9.528067e-01 -4.315041e-01
2.251475e+00 -5.873627e-01 8.820604e-01 -4.246036e-01
2.303835e+00 -6.113621e-01 8.082359e-01 -4.184036e-01
2.356194e+00 -6.315323e-01 7.328723e-01 -4.125538e-01
2.408554e+00 -6.517017e-01 6.575095e-01 -4.067044e-01
2.460914e+00 -6.696729e-01 5.836471e-01 -4.028698e-01
2.513274e+00 -6.832474e-01 5.127854e-01 -4.030650e-01
2.565634e+00 -6.968215e-01 4.419243e-01 -4.032601e-01
2.617994e+00 -7.103953e-01 3.710634e-01 -4.034552e-01
2.670354e+00 -7.063721e-01 3.176214e-01 -4.191622e-01
2.722714e+00 -7.023489e-01 2.641797e-01 -4.348711e-01
2.775074e+00 -6.985102e-01 2.107385e-01 -4.505819e-01
2.827433e+00 -6.276283e-01 1.736323e-01 -4.646558e-01
2.879793e+00 -5.230233e-01 1.446937e-01 -4.779103e-01
2.932153e+00 -4.183494e-01 1.157549e-01 -4.911641e-01
2.984513e+00 -3.137420e-01 8.681622e-02 -4.500005e-01
3.036873e+00 -2.091612e-01 5.787769e-02 -2.999997e-01
3.089233e+00 -1.041009e-01 4.764233e-02 -1.493117e-01
3.141593e+00 0.000000e+00 4.676844e-02 0.000000e+00
