# Angle of attack [rad] 	 Lift coefficient [-] 	 Drag coefficient [-] 	 Moment coefficient [-]
-3.141593e+00 0.000000e+00 5.075567e-02 6.340728e-02
-3.089233e+00 1.213732e-01 5.075567e-02 1.449891e-01
-3.036873e+00 2.438581e-01 6.090675e-02 2.399998e-01
-2.984513e+00 3.657876e-01 9.136032e-02 3.600004e-01
-2.932153e+00 4.755152e-01 1.231809e-01 3.132925e-01
-2.879793e+00 5.791420e-01 1.556849e-01 1.832322e-01
-2.827433e+00 6.827700e-01 1.881888e-01 5.316994e-02
-2.775074e+00 7.499291e-01 2.281151e-01 -3.376794e-02
-2.722714e+00 7.454019e-01 2.828858e-01 -3.579826e-02
-2.670354e+00 7.400458e-01 3.376565e-01 -3.758825e-02
-2.617994e+00 7.325966e-01 3.924272e-01 -3.502726e-02
-2.565634e+00 7.164162e-01 4.625483e-01 -1.893934e-02
-2.513274e+00 7.002356e-01 5.326695e-01 -2.851179e-03
-2.460914e+00 6.840546e-01 6.027910e-01 1.273112e-02
-2.408554e+00 6.641085e-01 6.757987e-01 2.825584e-02
-2.356194e+00 6.422798e-01 7.502497e-01 4.385718e-02
-2.303835e+00 6.204509e-01 8.247011e-01 5.946569e-02
-2.251475e+00 5.949746e-01 8.975655e-01 7.521210e-02
-2.199115e+00 5.622035e-01 9.672559e-01 9.122444e-02
-2.146755e+00 5.294325e-01 1.036946e+00 1.072396e-01
-2.094395e+00 4.966616e-01 1.106635e+00 1.232576e-01
-2.042035e+00 4.530077e-01 1.163026e+00 1.384816e-01
-1.989675e+00 4.093540e-01 1.219416e+00 1.537068e-01
-1.937315e+00 3.657007e-01 1.275806e+00 1.689330e-01
-1.884956e+00 3.169008e-01 1.318701e+00 1.825601e-01
-1.832596e+00 2.655275e-01 1.354848e+00 1.953991e-01
-1.780236e+00 2.141542e-01 1.390995e+00 2.082383e-01
-1.727876e+00 1.619149e-01 1.418889e+00 2.197229e-01
-1.675516e+00 1.079432e-01 1.430280e+00 2.284971e-01
-1.623156e+00 5.397175e-02 1.441670e+00 2.372714e-01
-1.570796e+00 3.368530e-07 1.453060e+00 2.460459e-01
-1.518436e+00 -5.397170e-02 1.441670e+00 2.504733e-01
-1.466077e+00 -1.079434e-01 1.430280e+00 2.549282e-01
-1.413717e+00 -1.619144e-01 1.418890e+00 2.594098e-01
-1.361357e+00 -2.141540e-01 1.390995e+00 2.606375e-01
-1.308997e+00 -2.655279e-01 1.354848e+00 2.602500e-01
-1.256637e+00 -3.169005e-01 1.318701e+00 2.598864e-01
-1.204277e+00 -3.657003e-01 1.275806e+00 2.582827e-01
-1.151917e+00 -4.093542e-01 1.219416e+00 2.541733e-01
-1.099557e+00 -4.530080e-01 1.163025e+00 2.500849e-01
-1.047198e+00 -4.966618e-01 1.106635e+00 2.460170e-01
-9.948377e-01 -5.294327e-01 1.036945e+00 2.401808e-01
-9.424778e-01 -5.622037e-01 9.672555e-01 2.343645e-01
-8.901179e-01 -5.949748e-01 8.975650e-01 2.285677e-01
-8.377580e-01 -6.220577e-01 8.247371e-01 2.231069e-01
-7.853982e-01 -6.462964e-01 7.503405e-01 2.178271e-01
-7.330383e-01 -6.657152e-01 6.758348e-01 2.142709e-01
-6.806784e-01 -6.842878e-01 6.017331e-01 2.113250e-01
-6.283185e-01 -7.005639e-01 5.292615e-01 2.104892e-01
-5.759587e-01 -7.161875e-01 4.594405e-01 2.129578e-01
-5.235988e-01 -7.325967e-01 3.924268e-01 2.191196e-01
-5.130210e-01 -7.363744e-01 3.795678e-01 2.213638e-01
-5.024433e-01 -7.401520e-01 3.667088e-01 2.236081e-01
-4.918655e-01 -7.439297e-01 3.538498e-01 2.258523e-01
-4.812878e-01 -7.481656e-01 3.414027e-01 2.288096e-01
-4.707100e-01 -7.525980e-01 3.291321e-01 2.320725e-01
-4.601323e-01 -7.570304e-01 3.168615e-01 2.353354e-01
-4.495545e-01 -7.618597e-01 3.048508e-01 2.391325e-01
-4.389768e-01 -7.672842e-01 2.932296e-01 2.437308e-01
-4.283990e-01 -7.727087e-01 2.816085e-01 2.483290e-01
-4.178212e-01 -7.783974e-01 2.700527e-01 2.522032e-01
-4.072435e-01 -7.864631e-01 2.590847e-01 2.495610e-01
-3.966657e-01 -7.945289e-01 2.481167e-01 2.458907e-01
-3.860880e-01 -8.025946e-01 2.371488e-01 2.435863e-01
-3.755102e-01 -8.109078e-01 2.262129e-01 2.362191e-01
-3.649325e-01 -8.165161e-01 2.152850e-01 2.268073e-01
-3.543547e-01 -8.225488e-01 2.043571e-01 2.173955e-01
-3.437770e-01 -8.300021e-01 1.935262e-01 2.083381e-01
-3.331992e-01 -8.382761e-01 1.827921e-01 1.996349e-01
-3.226215e-01 -8.415258e-01 1.717632e-01 1.872066e-01
-3.120437e-01 -8.438307e-01 1.602327e-01 1.742882e-01
-3.014660e-01 -8.459694e-01 1.493104e-01 1.603996e-01
-2.908882e-01 -8.444627e-01 1.386315e-01 1.437462e-01
-2.803105e-01 -8.401000e-01 1.281572e-01 1.248218e-01
-2.697327e-01 -8.378176e-01 1.180322e-01 1.048022e-01
-2.591549e-01 -8.371837e-01 1.081040e-01 8.416785e-02
-2.485772e-01 -8.408901e-01 9.846614e-02 6.272141e-02
-2.379994e-01 -8.468174e-01 8.888967e-02 4.264344e-02
-2.274217e-01 -8.553160e-01 7.936543e-02 2.260154e-02
-2.168439e-01 -8.472452e-01 6.918207e-02 8.675990e-03
-2.062662e-01 -8.354327e-01 5.981955e-02 -3.472199e-03
-1.956884e-01 -8.153935e-01 4.949400e-02 -1.222203e-02
-1.851107e-01 -7.900948e-01 4.033540e-02 -2.243273e-02
-1.745329e-01 -7.617041e-01 3.206980e-02 -3.342966e-02
-1.639552e-01 -7.283577e-01 2.530112e-02 -4.425420e-02
-1.533774e-01 -6.841425e-01 1.914950e-02 -5.669433e-02
-1.427997e-01 -6.179794e-01 1.376680e-02 -7.137704e-02
-1.322219e-01 -5.381040e-01 1.082277e-02 -8.211892e-02
-1.216442e-01 -4.516312e-01 9.391641e-03 -9.055030e-02
-1.110664e-01 -3.699048e-01 8.286805e-03 -9.654273e-02
-1.004887e-01 -2.884767e-01 7.761351e-03 -1.017580e-01
-8.991090e-02 -2.072605e-01 7.475357e-03 -1.060601e-01
-7.933315e-02 -1.272799e-01 7.286159e-03 -1.093712e-01
-6.875539e-02 -4.800585e-02 7.170929e-03 -1.118655e-01
-5.817764e-02 2.997735e-02 7.053906e-03 -1.139802e-01
-4.759989e-02 1.079250e-01 6.936271e-03 -1.159087e-01
-3.702214e-02 1.852867e-01 6.863335e-03 -1.179397e-01
-2.644438e-02 2.618187e-01 6.830161e-03 -1.202513e-01
-1.586663e-02 3.374373e-01 6.825276e-03 -1.224274e-01
-5.288877e-03 4.113400e-01 6.888751e-03 -1.243938e-01
5.288877e-03 4.854252e-01 6.933059e-03 -1.262711e-01
1.586663e-02 5.596887e-01 6.926411e-03 -1.279304e-01
2.644438e-02 6.338894e-01 6.971458e-03 -1.295096e-01
3.702214e-02 7.080073e-01 7.085036e-03 -1.309489e-01
4.759989e-02 7.817439e-01 7.228085e-03 -1.322803e-01
5.817764e-02 8.547687e-01 7.363943e-03 -1.334764e-01
6.875539e-02 9.273436e-01 7.508009e-03 -1.345808e-01
7.933315e-02 9.993371e-01 7.680252e-03 -1.354371e-01
8.991090e-02 1.070775e+00 7.882508e-03 -1.361714e-01
1.004887e-01 1.140676e+00 8.185606e-03 -1.365637e-01
1.110664e-01 1.207386e+00 8.610823e-03 -1.364505e-01
1.216442e-01 1.270305e+00 9.261549e-03 -1.358652e-01
1.322219e-01 1.319677e+00 1.067115e-02 -1.331960e-01
1.427997e-01 1.361179e+00 1.204572e-02 -1.297341e-01
1.533774e-01 1.386452e+00 1.401413e-02 -1.249694e-01
1.639552e-01 1.383648e+00 2.106043e-02 -1.226815e-01
1.745329e-01 1.366326e+00 3.083019e-02 -1.225945e-01
1.851107e-01 1.307939e+00 3.959537e-02 -1.217682e-01
1.956884e-01 1.263549e+00 4.685962e-02 -1.208243e-01
2.062662e-01 1.246221e+00 5.342092e-02 -1.178621e-01
2.168439e-01 1.233166e+00 6.314760e-02 -1.143809e-01
2.274217e-01 1.222839e+00 7.342409e-02 -1.120382e-01
2.379994e-01 1.213021e+00 8.549725e-02 -1.139224e-01
2.485772e-01 1.209959e+00 9.675299e-02 -1.158998e-01
2.591549e-01 1.209578e+00 1.067833e-01 -1.181763e-01
2.697327e-01 1.206282e+00 1.156761e-01 -1.196303e-01
2.803105e-01 1.201296e+00 1.240886e-01 -1.204756e-01
2.908882e-01 1.190496e+00 1.315884e-01 -1.200877e-01
3.014660e-01 1.179641e+00 1.402309e-01 -1.205886e-01
3.120437e-01 1.168259e+00 1.502700e-01 -1.221877e-01
3.226215e-01 1.162794e+00 1.613752e-01 -1.249596e-01
3.331992e-01 1.158722e+00 1.726884e-01 -1.280828e-01
3.437770e-01 1.153398e+00 1.836712e-01 -1.315339e-01
3.543547e-01 1.146674e+00 1.959313e-01 -1.359397e-01
3.649325e-01 1.142143e+00 2.094690e-01 -1.414685e-01
3.755102e-01 1.141632e+00 2.230067e-01 -1.470483e-01
3.860880e-01 1.138016e+00 2.360981e-01 -1.528385e-01
3.966657e-01 1.129251e+00 2.474050e-01 -1.594702e-01
4.072435e-01 1.120486e+00 2.587119e-01 -1.661453e-01
4.178212e-01 1.111721e+00 2.700188e-01 -1.729871e-01
4.283990e-01 1.103870e+00 2.816085e-01 -1.788809e-01
4.389768e-01 1.096120e+00 2.932296e-01 -1.846604e-01
4.495545e-01 1.088371e+00 3.048508e-01 -1.904296e-01
4.601323e-01 1.081472e+00 3.168615e-01 -1.957263e-01
4.707100e-01 1.075140e+00 3.291321e-01 -2.007076e-01
4.812878e-01 1.068809e+00 3.414027e-01 -2.056825e-01
4.918655e-01 1.062758e+00 3.538498e-01 -2.104898e-01
5.024433e-01 1.057361e+00 3.667088e-01 -2.149167e-01
5.130210e-01 1.051965e+00 3.795678e-01 -2.193393e-01
5.235988e-01 1.046568e+00 3.924268e-01 -2.237576e-01
5.759587e-01 1.023125e+00 4.594405e-01 -2.432389e-01
6.283185e-01 1.000804e+00 5.292615e-01 -2.610845e-01
6.806784e-01 9.775541e-01 6.017331e-01 -2.776089e-01
7.330383e-01 9.510219e-01 6.758348e-01 -2.932350e-01
7.853982e-01 9.232813e-01 7.503405e-01 -3.086018e-01
8.377580e-01 8.886542e-01 8.247371e-01 -3.232084e-01
8.901179e-01 8.499643e-01 8.975650e-01 -3.375068e-01
9.424778e-01 8.031484e-01 9.672555e-01 -3.512007e-01
9.948377e-01 7.563325e-01 1.036945e+00 -3.648893e-01
1.047198e+00 7.095166e-01 1.106635e+00 -3.785728e-01
1.099557e+00 6.471543e-01 1.163025e+00 -3.908918e-01
1.151917e+00 5.847918e-01 1.219416e+00 -4.032082e-01
1.204277e+00 5.224291e-01 1.275806e+00 -4.155218e-01
1.256637e+00 4.527150e-01 1.318701e+00 -4.265757e-01
1.308997e+00 3.793251e-01 1.354848e+00 -4.369995e-01
1.361357e+00 3.059341e-01 1.390995e+00 -4.474215e-01
1.413717e+00 2.313061e-01 1.418890e+00 -4.569806e-01
1.466077e+00 1.542045e-01 1.430280e+00 -4.648156e-01
1.518436e+00 7.710219e-02 1.441670e+00 -4.726497e-01
1.570796e+00 -3.368530e-07 1.453060e+00 -4.804830e-01
1.623156e+00 -5.397175e-02 1.441670e+00 -4.848820e-01
1.675516e+00 -1.079432e-01 1.430280e+00 -4.889773e-01
1.727876e+00 -1.619149e-01 1.418889e+00 -4.930353e-01
1.780236e+00 -2.141542e-01 1.390995e+00 -4.937866e-01
1.832596e+00 -2.655275e-01 1.354848e+00 -4.928689e-01
1.884956e+00 -3.169008e-01 1.318701e+00 -4.924102e-01
1.937315e+00 -3.657007e-01 1.275806e+00 -4.909654e-01
1.989675e+00 -4.093540e-01 1.219416e+00 -4.869829e-01
2.042035e+00 -4.530077e-01 1.163026e+00 -4.830000e-01
2.094395e+00 -4.966616e-01 1.106635e+00 -4.790169e-01
2.146755e+00 -5.294325e-01 1.036946e+00 -4.732272e-01
2.199115e+00 -5.622035e-01 9.672559e-01 -4.674374e-01
2.251475e+00 -5.949746e-01 8.975655e-01 -4.615503e-01
2.303835e+00 -6.204509e-01 8.247011e-01 -4.564539e-01
2.356194e+00 -6.422798e-01 7.502497e-01 -4.517851e-01
2.408554e+00 -6.641085e-01 6.757987e-01 -4.471163e-01
2.460914e+00 -6.840546e-01 6.027910e-01 -4.447204e-01
2.513274e+00 -7.002356e-01 5.326695e-01 -4.468705e-01
2.565634e+00 -7.164162e-01 4.625483e-01 -4.490207e-01
2.617994e+00 -7.325966e-01 3.924272e-01 -4.511709e-01
2.670354e+00 -7.332728e-01 3.386041e-01 -4.672449e-01
2.722714e+00 -7.309207e-01 2.847811e-01 -4.818100e-01
2.775074e+00 -7.281314e-01 2.309580e-01 -4.998433e-01
2.827433e+00 -6.590043e-01 1.912237e-01 -5.049641e-01
2.879793e+00 -5.560572e-01 1.585339e-01 -5.031028e-01
2.932153e+00 -4.531107e-01 1.258439e-01 -5.012411e-01
2.984513e+00 -3.460317e-01 9.364554e-02 -4.500005e-01
3.036873e+00 -2.306874e-01 6.243032e-02 -2.999997e-01
3.089233e+00 -1.148178e-01 5.151401e-02 -1.237795e-01
3.141593e+00 0.000000e+00 5.075567e-02 6.340728e-02
