# Blade n.d. span [-], 	 Chord [m], 	 Twist [deg], 	 Lift coeff [-], 	 Drag coeff [-], 	 Induction [-], 	 Angle of attack [deg], 	 Lift force [N/m], 	 Drag force [N/m]
0.000000000000000000e+00, 5.200000000000000178e+00, 1.559455301971171970e+01, 0.000000000000000000e+00, 0.000000000000000000e+00, 0.000000000000000000e+00, 0.000000000000000000e+00, 0.000000000000000000e+00, 0.000000000000000000e+00
2.040816326530612429e-02, 5.208839941579523902e+00, 1.558773861176888964e+01, 0.000000000000000000e+00, 0.000000000000000000e+00, 0.000000000000000000e+00, 0.000000000000000000e+00, 0.000000000000000000e+00, 0.000000000000000000e+00
4.081632653061225552e-02, 5.237887092263203037e+00, 1.541083467878359059e+01, 0.000000000000000000e+00, 0.000000000000000000e+00, 0.000000000000000000e+00, 0.000000000000000000e+00, 0.000000000000000000e+00, 0.000000000000000000e+00
6.122448979591837981e-02, 5.293325313383697051e+00, 1.494855563474368054e+01, 0.000000000000000000e+00, 0.000000000000000000e+00, 0.000000000000000000e+00, 0.000000000000000000e+00, 0.000000000000000000e+00, 0.000000000000000000e+00
8.163265306122451104e-02, 5.367339854814919597e+00, 1.425845480678574084e+01, 0.000000000000000000e+00, 0.000000000000000000e+00, 0.000000000000000000e+00, 0.000000000000000000e+00, 0.000000000000000000e+00, 0.000000000000000000e+00
1.020408163265306145e-01, 5.452092684226666819e+00, 1.339714163725627039e+01, 0.000000000000000000e+00, 0.000000000000000000e+00, 0.000000000000000000e+00, 0.000000000000000000e+00, 0.000000000000000000e+00, 0.000000000000000000e+00
1.224489795918367180e-01, 5.540031728503847397e+00, 1.242201947682707974e+01, 0.000000000000000000e+00, 0.000000000000000000e+00, 0.000000000000000000e+00, 0.000000000000000000e+00, 0.000000000000000000e+00, 0.000000000000000000e+00
1.428571428571429325e-01, 5.621824261194380945e+00, 1.139457131628078912e+01, 0.000000000000000000e+00, 0.000000000000000000e+00, 0.000000000000000000e+00, 0.000000000000000000e+00, 0.000000000000000000e+00, 0.000000000000000000e+00
1.632653061224490221e-01, 5.692531175149338374e+00, 1.037097608496840984e+01, 0.000000000000000000e+00, 0.000000000000000000e+00, 0.000000000000000000e+00, 0.000000000000000000e+00, 0.000000000000000000e+00, 0.000000000000000000e+00
1.836734693877551394e-01, 5.742610890726970396e+00, 9.403999874823057326e+00, 0.000000000000000000e+00, 0.000000000000000000e+00, 0.000000000000000000e+00, 0.000000000000000000e+00, 0.000000000000000000e+00, 0.000000000000000000e+00
2.040816326530613123e-01, 5.764836827022540966e+00, 8.551522201182079286e+00, 0.000000000000000000e+00, 0.000000000000000000e+00, 0.000000000000000000e+00, 0.000000000000000000e+00, 0.000000000000000000e+00, 0.000000000000000000e+00
2.244897959183673464e-01, 5.756119529852528061e+00, 7.833153039627246628e+00, 0.000000000000000000e+00, 0.000000000000000000e+00, 0.000000000000000000e+00, 0.000000000000000000e+00, 0.000000000000000000e+00, 0.000000000000000000e+00
2.448979591836735192e-01, 5.703098512750649718e+00, 7.191354972096500653e+00, 0.000000000000000000e+00, 0.000000000000000000e+00, 0.000000000000000000e+00, 0.000000000000000000e+00, 0.000000000000000000e+00, 0.000000000000000000e+00
2.653061224489796643e-01, 5.604676021602162272e+00, 6.551629060916145164e+00, 0.000000000000000000e+00, 0.000000000000000000e+00, 0.000000000000000000e+00, 0.000000000000000000e+00, 0.000000000000000000e+00, 0.000000000000000000e+00
2.857142857142858650e-01, 5.471559126660523908e+00, 5.933995702189942101e+00, 0.000000000000000000e+00, 0.000000000000000000e+00, 0.000000000000000000e+00, 0.000000000000000000e+00, 0.000000000000000000e+00, 0.000000000000000000e+00
3.061224489795918435e-01, 5.322778014171771765e+00, 5.346089613189348277e+00, 0.000000000000000000e+00, 0.000000000000000000e+00, 0.000000000000000000e+00, 0.000000000000000000e+00, 0.000000000000000000e+00, 0.000000000000000000e+00
3.265306122448980441e-01, 5.166482288167049575e+00, 4.796333947019594923e+00, 0.000000000000000000e+00, 0.000000000000000000e+00, 0.000000000000000000e+00, 0.000000000000000000e+00, 0.000000000000000000e+00, 0.000000000000000000e+00
3.469387755102041337e-01, 5.019421327310202408e+00, 4.296593562725417037e+00, 0.000000000000000000e+00, 0.000000000000000000e+00, 0.000000000000000000e+00, 0.000000000000000000e+00, 0.000000000000000000e+00, 0.000000000000000000e+00
3.673469387755102789e-01, 4.885807888739599036e+00, 3.846955194686784818e+00, 0.000000000000000000e+00, 0.000000000000000000e+00, 0.000000000000000000e+00, 0.000000000000000000e+00, 0.000000000000000000e+00, 0.000000000000000000e+00
3.877551020408164795e-01, 4.767959675121795193e+00, 3.445342056797746189e+00, 0.000000000000000000e+00, 0.000000000000000000e+00, 0.000000000000000000e+00, 0.000000000000000000e+00, 0.000000000000000000e+00, 0.000000000000000000e+00
4.081632653061225691e-01, 4.654566079625437780e+00, 3.076913909773019817e+00, 0.000000000000000000e+00, 0.000000000000000000e+00, 0.000000000000000000e+00, 0.000000000000000000e+00, 0.000000000000000000e+00, 0.000000000000000000e+00
4.285714285714286587e-01, 4.541031051711909683e+00, 2.733562457425842140e+00, 0.000000000000000000e+00, 0.000000000000000000e+00, 0.000000000000000000e+00, 0.000000000000000000e+00, 0.000000000000000000e+00, 0.000000000000000000e+00
4.489795918367347483e-01, 4.428175577624729797e+00, 2.412234674442037985e+00, 0.000000000000000000e+00, 0.000000000000000000e+00, 0.000000000000000000e+00, 0.000000000000000000e+00, 0.000000000000000000e+00, 0.000000000000000000e+00
4.693877551020409489e-01, 4.316958876583997018e+00, 2.111690772172129194e+00, 0.000000000000000000e+00, 0.000000000000000000e+00, 0.000000000000000000e+00, 0.000000000000000000e+00, 0.000000000000000000e+00, 0.000000000000000000e+00
4.897959183673471495e-01, 4.207880735790048732e+00, 1.828396455235506091e+00, 0.000000000000000000e+00, 0.000000000000000000e+00, 0.000000000000000000e+00, 0.000000000000000000e+00, 0.000000000000000000e+00, 0.000000000000000000e+00
5.102040816326532946e-01, 4.101646187027422563e+00, 1.558783420877333903e+00, 0.000000000000000000e+00, 0.000000000000000000e+00, 0.000000000000000000e+00, 0.000000000000000000e+00, 0.000000000000000000e+00, 0.000000000000000000e+00
5.306122448979593287e-01, 3.998712335312355926e+00, 1.302436869719713064e+00, 0.000000000000000000e+00, 0.000000000000000000e+00, 0.000000000000000000e+00, 0.000000000000000000e+00, 0.000000000000000000e+00, 0.000000000000000000e+00
5.510204081632653628e-01, 3.899408676051565159e+00, 1.064427371073839002e+00, 0.000000000000000000e+00, 0.000000000000000000e+00, 0.000000000000000000e+00, 0.000000000000000000e+00, 0.000000000000000000e+00, 0.000000000000000000e+00
5.714285714285715079e-01, 3.803172543681295092e+00, 8.434461662411673055e-01, 0.000000000000000000e+00, 0.000000000000000000e+00, 0.000000000000000000e+00, 0.000000000000000000e+00, 0.000000000000000000e+00, 0.000000000000000000e+00
5.918367346938777640e-01, 3.709389453654425850e+00, 6.365641868417889482e-01, 0.000000000000000000e+00, 0.000000000000000000e+00, 0.000000000000000000e+00, 0.000000000000000000e+00, 0.000000000000000000e+00, 0.000000000000000000e+00
6.122448979591836871e-01, 3.617111741572531791e+00, 4.370289000217617015e-01, 0.000000000000000000e+00, 0.000000000000000000e+00, 0.000000000000000000e+00, 0.000000000000000000e+00, 0.000000000000000000e+00, 0.000000000000000000e+00
6.326530612244899432e-01, 3.525634918177657173e+00, 2.396567933387979965e-01, 0.000000000000000000e+00, 0.000000000000000000e+00, 0.000000000000000000e+00, 0.000000000000000000e+00, 0.000000000000000000e+00, 0.000000000000000000e+00
6.530612244897960883e-01, 3.434082670567315088e+00, 3.967768814723920262e-02, 0.000000000000000000e+00, 0.000000000000000000e+00, 0.000000000000000000e+00, 0.000000000000000000e+00, 0.000000000000000000e+00, 0.000000000000000000e+00
6.734693877551022334e-01, 3.341933111457596084e+00, -1.728281243479747042e-01, 0.000000000000000000e+00, 0.000000000000000000e+00, 0.000000000000000000e+00, 0.000000000000000000e+00, 0.000000000000000000e+00, 0.000000000000000000e+00
6.938775510204082675e-01, 3.248678447761412791e+00, -4.070838313820219212e-01, 0.000000000000000000e+00, 0.000000000000000000e+00, 0.000000000000000000e+00, 0.000000000000000000e+00, 0.000000000000000000e+00, 0.000000000000000000e+00
7.142857142857145236e-01, 3.156109679927359135e+00, -6.803776144613039589e-01, 0.000000000000000000e+00, 0.000000000000000000e+00, 0.000000000000000000e+00, 0.000000000000000000e+00, 0.000000000000000000e+00, 0.000000000000000000e+00
7.346938775510205577e-01, 3.064580004833834082e+00, -9.992936104276489706e-01, 0.000000000000000000e+00, 0.000000000000000000e+00, 0.000000000000000000e+00, 0.000000000000000000e+00, 0.000000000000000000e+00, 0.000000000000000000e+00
7.551020408163268138e-01, 2.972992647082486783e+00, -1.320525255517710939e+00, 0.000000000000000000e+00, 0.000000000000000000e+00, 0.000000000000000000e+00, 0.000000000000000000e+00, 0.000000000000000000e+00, 0.000000000000000000e+00
7.755102040816329589e-01, 2.880705106690617079e+00, -1.623298762065715106e+00, 0.000000000000000000e+00, 0.000000000000000000e+00, 0.000000000000000000e+00, 0.000000000000000000e+00, 0.000000000000000000e+00, 0.000000000000000000e+00
7.959183673469388820e-01, 2.786969376686517119e+00, -1.884368146311782954e+00, 0.000000000000000000e+00, 0.000000000000000000e+00, 0.000000000000000000e+00, 0.000000000000000000e+00, 0.000000000000000000e+00, 0.000000000000000000e+00
8.163265306122451381e-01, 2.691030938627057001e+00, -2.086230093232372962e+00, 0.000000000000000000e+00, 0.000000000000000000e+00, 0.000000000000000000e+00, 0.000000000000000000e+00, 0.000000000000000000e+00, 0.000000000000000000e+00
8.367346938775511722e-01, 2.591965555977675972e+00, -2.163998201705838120e+00, 0.000000000000000000e+00, 0.000000000000000000e+00, 0.000000000000000000e+00, 0.000000000000000000e+00, 0.000000000000000000e+00, 0.000000000000000000e+00
8.571428571428575394e-01, 2.489323647505217174e+00, -2.175841166085000111e+00, 0.000000000000000000e+00, 0.000000000000000000e+00, 0.000000000000000000e+00, 0.000000000000000000e+00, 0.000000000000000000e+00, 0.000000000000000000e+00
8.775510204081636845e-01, 2.383917231097341105e+00, -2.155303774975187991e+00, 0.000000000000000000e+00, 0.000000000000000000e+00, 0.000000000000000000e+00, 0.000000000000000000e+00, 0.000000000000000000e+00, 0.000000000000000000e+00
8.979591836734699406e-01, 2.275923816206998129e+00, -2.102909521958467032e+00, 0.000000000000000000e+00, 0.000000000000000000e+00, 0.000000000000000000e+00, 0.000000000000000000e+00, 0.000000000000000000e+00, 0.000000000000000000e+00
9.183673469387760857e-01, 2.165466732053696219e+00, -2.018403421317624069e+00, 0.000000000000000000e+00, 0.000000000000000000e+00, 0.000000000000000000e+00, 0.000000000000000000e+00, 0.000000000000000000e+00, 0.000000000000000000e+00
9.387755102040813426e-01, 2.052625082558482195e+00, -1.896743213972770015e+00, 0.000000000000000000e+00, 0.000000000000000000e+00, 0.000000000000000000e+00, 0.000000000000000000e+00, 0.000000000000000000e+00, 0.000000000000000000e+00
9.591836734693875988e-01, 1.937753326819164013e+00, -1.724325762660473993e+00, 0.000000000000000000e+00, 0.000000000000000000e+00, 0.000000000000000000e+00, 0.000000000000000000e+00, 0.000000000000000000e+00, 0.000000000000000000e+00
9.795918367346946320e-01, 1.819662967336163062e+00, -1.508125114401623890e+00, 0.000000000000000000e+00, 0.000000000000000000e+00, 0.000000000000000000e+00, 0.000000000000000000e+00, 0.000000000000000000e+00, 0.000000000000000000e+00
1.000000000000000000e+00, 4.999999999999997780e-01, -1.242387706272970016e+00, 0.000000000000000000e+00, 0.000000000000000000e+00, 0.000000000000000000e+00, 0.000000000000000000e+00, 0.000000000000000000e+00, 0.000000000000000000e+00
