# Angle of attack [rad] 	 Lift coefficient [-] 	 Drag coefficient [-] 	 Moment coefficient [-]
-3.141593e+00 0.000000e+00 1.044515e-02 0.000000e+00
-3.089233e+00 1.471570e-01 1.048723e-02 1.194527e-01
-3.036873e+00 2.956622e-01 1.053040e-02 2.399998e-01
-2.984513e+00 4.434942e-01 1.057400e-02 3.600004e-01
-2.932153e+00 5.368487e-01 2.745063e-02 3.812792e-01
-2.879793e+00 6.015601e-01 5.274436e-02 3.531981e-01
-2.827433e+00 6.662238e-01 7.803962e-02 3.251168e-01
-2.775074e+00 7.023166e-01 1.125041e-01 3.018609e-01
-2.722714e+00 6.797261e-01 1.653057e-01 2.882488e-01
-2.670354e+00 6.571493e-01 2.181102e-01 2.746237e-01
-2.617994e+00 6.345897e-01 2.709180e-01 2.609806e-01
-2.565634e+00 6.220610e-01 3.358992e-01 2.624887e-01
-2.513274e+00 6.095393e-01 4.008531e-01 2.639921e-01
-2.460914e+00 5.970257e-01 4.658075e-01 2.654899e-01
-2.408554e+00 5.807041e-01 5.337175e-01 2.702969e-01
-2.356194e+00 5.624781e-01 6.031054e-01 2.767595e-01
-2.303835e+00 5.442556e-01 6.724941e-01 2.832209e-01
-2.251475e+00 5.226785e-01 7.406510e-01 2.900643e-01
-2.199115e+00 4.943859e-01 8.063445e-01 2.976739e-01
-2.146755e+00 4.660950e-01 8.720375e-01 3.052835e-01
-2.094395e+00 4.378060e-01 9.377302e-01 3.128930e-01
-2.042035e+00 3.995774e-01 9.920497e-01 3.192113e-01
-1.989675e+00 3.613495e-01 1.046369e+00 3.255293e-01
-1.937315e+00 3.231227e-01 1.100688e+00 3.318468e-01
-1.884956e+00 2.801733e-01 1.143185e+00 3.361368e-01
-1.832596e+00 2.348625e-01 1.179772e+00 3.394115e-01
-1.780236e+00 1.895524e-01 1.216358e+00 3.426832e-01
-1.727876e+00 1.434114e-01 1.245674e+00 3.445372e-01
-1.675516e+00 9.560738e-02 1.260450e+00 3.435565e-01
-1.623156e+00 4.780375e-02 1.275225e+00 3.425621e-01
-1.570796e+00 2.983567e-07 1.290000e+00 3.417943e-01
-1.518436e+00 -4.780370e-02 1.275225e+00 3.349587e-01
-1.466077e+00 -9.560751e-02 1.260450e+00 3.282413e-01
-1.413717e+00 -1.434110e-01 1.245674e+00 3.214342e-01
-1.361357e+00 -1.895522e-01 1.216358e+00 3.121235e-01
-1.308997e+00 -2.348628e-01 1.179772e+00 3.017804e-01
-1.256637e+00 -2.801731e-01 1.143185e+00 2.914374e-01
-1.204277e+00 -3.231223e-01 1.100688e+00 2.803833e-01
-1.151917e+00 -3.613496e-01 1.046369e+00 2.679067e-01
-1.099557e+00 -3.995777e-01 9.920493e-01 2.554301e-01
-1.047198e+00 -4.378062e-01 9.377297e-01 2.429535e-01
-9.948377e-01 -4.660952e-01 8.720370e-01 2.299629e-01
-9.424778e-01 -4.943861e-01 8.063440e-01 2.169722e-01
-8.901179e-01 -5.226787e-01 7.406506e-01 2.039814e-01
-8.377580e-01 -5.442530e-01 6.724941e-01 1.915077e-01
-7.853982e-01 -5.624698e-01 6.031063e-01 1.792925e-01
-7.330383e-01 -5.807000e-01 5.337176e-01 1.670771e-01
-6.806784e-01 -5.970248e-01 4.658074e-01 1.553204e-01
-6.283185e-01 -6.095370e-01 4.008529e-01 1.444807e-01
-5.759587e-01 -6.220607e-01 3.358996e-01 1.336412e-01
-5.235988e-01 -6.345898e-01 2.709176e-01 1.228016e-01
-5.130210e-01 -6.391571e-01 2.602493e-01 1.204437e-01
-5.024433e-01 -6.437270e-01 2.495811e-01 1.180561e-01
-4.918655e-01 -6.482993e-01 2.389130e-01 1.156688e-01
-4.812878e-01 -6.528711e-01 2.282449e-01 1.132816e-01
-4.707100e-01 -6.574436e-01 2.175768e-01 1.108947e-01
-4.601323e-01 -6.620179e-01 2.069089e-01 1.085080e-01
-4.495545e-01 -6.665906e-01 1.962412e-01 1.061214e-01
-4.389768e-01 -6.711594e-01 1.855738e-01 1.037350e-01
-4.283990e-01 -6.757290e-01 1.749065e-01 1.013486e-01
-4.178212e-01 -6.802980e-01 1.642393e-01 9.896238e-02
-4.072435e-01 -6.848548e-01 1.535722e-01 9.657609e-02
-3.966657e-01 -6.894116e-01 1.429052e-01 9.418981e-02
-3.860880e-01 -6.939686e-01 1.322382e-01 9.180355e-02
-3.755102e-01 -6.985087e-01 1.215711e-01 8.941708e-02
-3.649325e-01 -7.030449e-01 1.109041e-01 8.703051e-02
-3.543547e-01 -7.075813e-01 1.002371e-01 8.464391e-02
-3.437770e-01 -7.024341e-01 9.308225e-02 8.041766e-02
-3.331992e-01 -6.876050e-01 8.943945e-02 7.435190e-02
-3.226215e-01 -6.727781e-01 8.579697e-02 6.828645e-02
-3.120437e-01 -6.579523e-01 8.215460e-02 6.222101e-02
-3.014660e-01 -6.431270e-01 7.851221e-02 5.615530e-02
-2.908882e-01 -6.283025e-01 7.486995e-02 5.008960e-02
-2.803105e-01 -6.134789e-01 7.122783e-02 4.402389e-02
-2.697327e-01 -5.986568e-01 6.758604e-02 3.795848e-02
-2.591549e-01 -5.838351e-01 6.394437e-02 3.189297e-02
-2.485772e-01 -5.690134e-01 6.030269e-02 2.582710e-02
-2.379994e-01 -5.541928e-01 5.666130e-02 1.976125e-02
-2.274217e-01 -5.393713e-01 5.301980e-02 1.369465e-02
-2.168439e-01 -5.245515e-01 4.937874e-02 7.628875e-03
-2.062662e-01 -5.097309e-01 4.573759e-02 1.565829e-03
-1.956884e-01 -4.949118e-01 4.209691e-02 -4.496152e-03
-1.851107e-01 -4.800919e-01 3.845613e-02 -1.055782e-02
-1.745329e-01 -4.652726e-01 3.481572e-02 -1.661810e-02
-1.639552e-01 -4.330152e-01 3.421877e-02 -1.650762e-02
-1.533774e-01 -4.007766e-01 3.362215e-02 -1.639401e-02
-1.427997e-01 -3.685504e-01 3.301964e-02 -1.627663e-02
-1.322219e-01 -3.364343e-01 3.267683e-02 -1.616407e-02
-1.216442e-01 -3.043750e-01 3.249429e-02 -1.605446e-02
-1.110664e-01 -2.723497e-01 3.220725e-02 -1.592438e-02
-1.004887e-01 -2.403584e-01 3.182765e-02 -1.566913e-02
-8.991090e-02 -2.084323e-01 3.134666e-02 -1.562925e-02
-7.933315e-02 -1.766100e-01 3.081206e-02 -1.559841e-02
-6.875539e-02 -1.449976e-01 3.025292e-02 -1.555941e-02
-5.817764e-02 -1.138636e-01 2.962083e-02 -1.552101e-02
-4.759989e-02 -5.998932e-02 2.930652e-02 -1.713635e-02
-3.702214e-02 2.275649e-02 2.935390e-02 -1.977494e-02
-2.644438e-02 1.052000e-01 2.937880e-02 -2.184954e-02
-1.586663e-02 1.874431e-01 2.941629e-02 -2.401140e-02
-5.288877e-03 2.694925e-01 2.951497e-02 -2.607381e-02
5.288877e-03 3.513412e-01 2.952524e-02 -2.813603e-02
1.586663e-02 4.329771e-01 2.953243e-02 -3.027991e-02
2.644438e-02 5.148186e-01 2.953202e-02 -3.236632e-02
3.702214e-02 5.958760e-01 2.962202e-02 -3.471916e-02
4.759989e-02 6.763641e-01 2.960764e-02 -3.731099e-02
5.817764e-02 7.568464e-01 2.958947e-02 -3.997808e-02
6.875539e-02 8.373354e-01 2.966017e-02 -4.264539e-02
7.933315e-02 9.178193e-01 2.964510e-02 -4.521290e-02
8.991090e-02 9.983085e-01 2.964798e-02 -4.788022e-02
1.004887e-01 1.078785e+00 2.969108e-02 -5.054805e-02
1.110664e-01 1.159257e+00 2.965403e-02 -5.314487e-02
1.216442e-01 1.239724e+00 2.971081e-02 -5.578704e-02
1.322219e-01 1.319797e+00 2.966077e-02 -5.857706e-02
1.427997e-01 1.395743e+00 2.963449e-02 -6.232107e-02
1.533774e-01 1.468453e+00 2.968556e-02 -6.631930e-02
1.639552e-01 1.541137e+00 2.964884e-02 -7.031990e-02
1.745329e-01 1.613807e+00 2.953660e-02 -7.432079e-02
1.851107e-01 1.668360e+00 2.933384e-02 -7.803461e-02
1.956884e-01 1.706927e+00 2.937988e-02 -8.059275e-02
2.062662e-01 1.745876e+00 3.013076e-02 -8.458397e-02
2.168439e-01 1.097827e+00 3.331058e-02 -6.182600e-02
2.274217e-01 9.734028e-01 3.564921e-02 -5.877188e-02
2.379994e-01 9.884858e-01 3.734413e-02 -6.126335e-02
2.485772e-01 1.010906e+00 3.865373e-02 -6.407126e-02
2.591549e-01 1.042828e+00 3.967179e-02 -6.695295e-02
2.697327e-01 1.082690e+00 4.027785e-02 -7.002924e-02
2.803105e-01 1.120694e+00 4.152111e-02 -7.341248e-02
2.908882e-01 1.104286e+00 4.973497e-02 -7.898344e-02
3.014660e-01 1.087843e+00 5.794819e-02 -8.456664e-02
3.120437e-01 1.071370e+00 6.616062e-02 -9.016408e-02
3.226215e-01 1.054825e+00 7.437270e-02 -9.578063e-02
3.331992e-01 1.038408e+00 8.258478e-02 -1.013991e-01
3.437770e-01 1.022246e+00 9.079734e-02 -1.070035e-01
3.543547e-01 1.010927e+00 1.002371e-01 -1.112642e-01
3.649325e-01 1.004446e+00 1.109041e-01 -1.141822e-01
3.755102e-01 9.979650e-01 1.215711e-01 -1.171022e-01
3.860880e-01 9.914784e-01 1.322382e-01 -1.200245e-01
3.966657e-01 9.849679e-01 1.429052e-01 -1.229496e-01
4.072435e-01 9.784575e-01 1.535722e-01 -1.258759e-01
4.178212e-01 9.719472e-01 1.642393e-01 -1.288034e-01
4.283990e-01 9.654193e-01 1.749065e-01 -1.317327e-01
4.389768e-01 9.588905e-01 1.855738e-01 -1.346630e-01
4.495545e-01 9.523631e-01 1.962412e-01 -1.375942e-01
4.601323e-01 9.458300e-01 2.069089e-01 -1.405266e-01
4.707100e-01 9.392946e-01 2.175768e-01 -1.434600e-01
4.812878e-01 9.327618e-01 2.282449e-01 -1.463943e-01
4.918655e-01 9.262300e-01 2.389130e-01 -1.493295e-01
5.024433e-01 9.196974e-01 2.495811e-01 -1.522655e-01
5.130210e-01 9.131684e-01 2.602493e-01 -1.552024e-01
5.235988e-01 9.066430e-01 2.709176e-01 -1.581402e-01
5.759587e-01 8.886887e-01 3.358996e-01 -1.691291e-01
6.283185e-01 8.707422e-01 4.008529e-01 -1.799494e-01
6.806784e-01 8.528123e-01 4.658074e-01 -1.907310e-01
7.330383e-01 8.295053e-01 5.337176e-01 -2.013091e-01
7.853982e-01 8.035105e-01 6.031063e-01 -2.117857e-01
8.377580e-01 7.775346e-01 6.724941e-01 -2.222621e-01
8.901179e-01 7.467448e-01 7.406506e-01 -2.326569e-01
9.424778e-01 7.063226e-01 8.063440e-01 -2.428884e-01
9.948377e-01 6.659028e-01 8.720370e-01 -2.531198e-01
1.047198e+00 6.254858e-01 9.377297e-01 -2.633511e-01
1.099557e+00 5.708556e-01 9.920493e-01 -2.728282e-01
1.151917e+00 5.162262e-01 1.046369e+00 -2.823053e-01
1.204277e+00 4.615980e-01 1.100688e+00 -2.917823e-01
1.256637e+00 4.002555e-01 1.143185e+00 -3.003368e-01
1.308997e+00 3.355555e-01 1.179772e+00 -3.084300e-01
1.361357e+00 2.708552e-01 1.216358e+00 -3.165233e-01
1.413717e+00 2.049499e-01 1.245674e+00 -3.239058e-01
1.466077e+00 1.366336e-01 1.260450e+00 -3.298665e-01
1.518436e+00 6.831671e-02 1.275225e+00 -3.357758e-01
1.570796e+00 -2.983567e-07 1.290000e+00 -3.415686e-01
1.623156e+00 -4.780375e-02 1.275225e+00 -3.425506e-01
1.675516e+00 -9.560738e-02 1.260450e+00 -3.433132e-01
1.727876e+00 -1.434114e-01 1.245674e+00 -3.440758e-01
1.780236e+00 -1.895524e-01 1.216358e+00 -3.420180e-01
1.832596e+00 -2.348625e-01 1.179772e+00 -3.385501e-01
1.884956e+00 -2.801733e-01 1.143185e+00 -3.350820e-01
1.937315e+00 -3.231227e-01 1.100688e+00 -3.306132e-01
1.989675e+00 -3.613495e-01 1.046369e+00 -3.241427e-01
2.042035e+00 -3.995774e-01 9.920497e-01 -3.176722e-01
2.094395e+00 -4.378060e-01 9.377302e-01 -3.112017e-01
2.146755e+00 -4.660950e-01 8.720375e-01 -3.034972e-01
2.199115e+00 -4.943859e-01 8.063445e-01 -2.957928e-01
2.251475e+00 -5.226785e-01 7.406510e-01 -2.880883e-01
2.303835e+00 -5.442556e-01 6.724941e-01 -2.812002e-01
2.356194e+00 -5.624781e-01 6.031054e-01 -2.747204e-01
2.408554e+00 -5.807041e-01 5.337175e-01 -2.682407e-01
2.460914e+00 -5.970257e-01 4.658075e-01 -2.634488e-01
2.513274e+00 -6.095393e-01 4.008531e-01 -2.620326e-01
2.565634e+00 -6.220610e-01 3.358992e-01 -2.606163e-01
2.617994e+00 -6.345897e-01 2.709180e-01 -2.592001e-01
2.670354e+00 -6.571493e-01 2.181102e-01 -2.731037e-01
2.722714e+00 -6.797261e-01 1.653057e-01 -2.870072e-01
2.775074e+00 -7.023166e-01 1.125041e-01 -3.009107e-01
2.827433e+00 -6.663315e-01 7.803962e-02 -3.444362e-01
2.879793e+00 -6.027568e-01 5.274436e-02 -4.027729e-01
2.932153e+00 -5.368487e-01 2.745063e-02 -4.611090e-01
2.984513e+00 -4.434942e-01 1.057400e-02 -4.500005e-01
3.036873e+00 -2.956622e-01 1.053040e-02 -2.999997e-01
3.089233e+00 -1.471570e-01 1.048723e-02 -1.493159e-01
3.141593e+00 0.000000e+00 1.044515e-02 0.000000e+00
