# Angle of attack [rad] 	 Lift coefficient [-] 	 Drag coefficient [-] 	 Moment coefficient [-]
-3.141593e+00 0.000000e+00 5.020179e-02 0.000000e+00
-3.089233e+00 1.168147e-01 5.020179e-02 1.189750e-01
-3.036873e+00 2.357573e-01 6.024199e-02 2.399998e-01
-2.984513e+00 3.536365e-01 9.036292e-02 3.600004e-01
-2.932153e+00 4.698298e-01 1.209861e-01 3.196920e-01
-2.879793e+00 5.861004e-01 1.518603e-01 1.992310e-01
-2.827433e+00 6.972070e-01 1.827352e-01 7.876906e-02
-2.775074e+00 7.650533e-01 2.219924e-01 4.594889e-04
-2.722714e+00 7.478402e-01 2.780139e-01 8.238265e-03
-2.670354e+00 7.313151e-01 3.340354e-01 1.690339e-02
-2.617994e+00 7.147897e-01 3.900570e-01 2.579010e-02
-2.565634e+00 7.007001e-01 4.602601e-01 4.022825e-02
-2.513274e+00 6.866102e-01 5.304633e-01 5.467500e-02
-2.460914e+00 6.725199e-01 6.006669e-01 6.913197e-02
-2.408554e+00 6.541578e-01 6.737695e-01 8.400668e-02
-2.356194e+00 6.336600e-01 7.483216e-01 9.909139e-02
-2.303835e+00 6.131613e-01 8.228742e-01 1.141829e-01
-2.251475e+00 5.888694e-01 8.958447e-01 1.294087e-01
-2.199115e+00 5.569913e-01 9.656507e-01 1.448942e-01
-2.146755e+00 5.251130e-01 1.035456e+00 1.603859e-01
-2.094395e+00 4.932347e-01 1.105261e+00 1.758849e-01
-2.042035e+00 4.501656e-01 1.161783e+00 1.904500e-01
-1.989675e+00 4.070967e-01 1.218304e+00 2.050229e-01
-1.937315e+00 3.640278e-01 1.274825e+00 2.196047e-01
-1.884956e+00 3.156455e-01 1.317856e+00 2.324633e-01
-1.832596e+00 2.646064e-01 1.354141e+00 2.444670e-01
-1.780236e+00 2.135676e-01 1.390426e+00 2.564855e-01
-1.727876e+00 1.615876e-01 1.418461e+00 2.671344e-01
-1.675516e+00 1.077251e-01 1.429994e+00 2.750275e-01
-1.623156e+00 5.386274e-02 1.441527e+00 2.829510e-01
-1.570796e+00 3.361726e-07 1.453060e+00 2.909174e-01
-1.518436e+00 -5.386268e-02 1.441527e+00 2.947675e-01
-1.466077e+00 -1.077253e-01 1.429994e+00 2.988977e-01
-1.413717e+00 -1.615871e-01 1.418461e+00 3.035368e-01
-1.361357e+00 -2.135673e-01 1.390426e+00 3.037026e-01
-1.308997e+00 -2.646067e-01 1.354141e+00 3.017515e-01
-1.256637e+00 -3.156452e-01 1.317856e+00 2.997974e-01
-1.204277e+00 -3.640274e-01 1.274826e+00 2.966019e-01
-1.151917e+00 -4.070968e-01 1.218304e+00 2.909256e-01
-1.099557e+00 -4.501659e-01 1.161783e+00 2.852446e-01
-1.047198e+00 -4.932349e-01 1.105261e+00 2.795583e-01
-9.948377e-01 -5.251132e-01 1.035456e+00 2.720518e-01
-9.424778e-01 -5.569915e-01 9.656502e-01 2.645373e-01
-8.901179e-01 -5.888696e-01 8.958442e-01 2.570134e-01
-8.377580e-01 -6.148583e-01 8.229075e-01 2.496500e-01
-7.853982e-01 -6.379023e-01 7.484055e-01 2.423557e-01
-7.330383e-01 -6.558548e-01 6.738028e-01 2.363613e-01
-6.806784e-01 -6.728821e-01 5.996063e-01 2.309582e-01
-6.283185e-01 -6.873447e-01 5.270476e-01 2.277952e-01
-5.759587e-01 -7.008370e-01 4.571459e-01 2.273672e-01
-5.235988e-01 -7.147898e-01 3.900566e-01 2.299722e-01
-5.130210e-01 -7.179898e-01 3.771836e-01 2.313131e-01
-5.024433e-01 -7.211898e-01 3.643105e-01 2.326540e-01
-4.918655e-01 -7.243898e-01 3.514375e-01 2.339950e-01
-4.812878e-01 -7.279936e-01 3.389769e-01 2.359129e-01
-4.707100e-01 -7.317705e-01 3.266931e-01 2.380781e-01
-4.601323e-01 -7.355474e-01 3.144093e-01 2.402434e-01
-4.495545e-01 -7.396826e-01 3.023857e-01 2.428381e-01
-4.389768e-01 -7.443551e-01 2.907524e-01 2.460768e-01
-4.283990e-01 -7.490276e-01 2.791191e-01 2.493155e-01
-4.178212e-01 -7.538324e-01 2.675565e-01 2.526972e-01
-4.072435e-01 -7.598285e-01 2.566304e-01 2.573656e-01
-3.966657e-01 -7.658247e-01 2.457043e-01 2.628336e-01
-3.860880e-01 -7.718208e-01 2.347781e-01 2.676545e-01
-3.755102e-01 -7.964435e-01 2.266764e-01 2.643514e-01
-3.649325e-01 -8.308499e-01 2.192810e-01 2.571919e-01
-3.543547e-01 -8.612398e-01 2.118855e-01 2.494594e-01
-3.437770e-01 -8.868514e-01 2.046642e-01 2.363455e-01
-3.331992e-01 -9.078495e-01 1.976171e-01 2.179900e-01
-3.226215e-01 -9.284387e-01 1.909949e-01 1.995819e-01
-3.120437e-01 -9.487980e-01 1.843433e-01 1.816865e-01
-3.014660e-01 -9.690157e-01 1.766526e-01 1.640479e-01
-2.908882e-01 -9.891392e-01 1.704065e-01 1.464094e-01
-2.803105e-01 -1.009197e+00 1.644055e-01 1.287708e-01
-2.697327e-01 -1.015408e+00 1.568629e-01 1.134708e-01
-2.591549e-01 -1.012984e+00 1.484038e-01 9.945488e-02
-2.485772e-01 -9.892038e-01 1.377950e-01 8.942579e-02
-2.379994e-01 -9.620147e-01 1.268812e-01 7.980895e-02
-2.274217e-01 -9.324493e-01 1.157519e-01 6.934144e-02
-2.168439e-01 -9.007925e-01 1.049007e-01 5.677139e-02
-2.062662e-01 -8.688487e-01 9.450410e-02 4.423753e-02
-1.956884e-01 -8.368086e-01 8.516610e-02 3.199584e-02
-1.851107e-01 -8.032842e-01 7.644332e-02 2.091060e-02
-1.745329e-01 -7.680970e-01 6.801307e-02 1.047792e-02
-1.639552e-01 -7.397376e-01 5.683943e-02 -1.008929e-03
-1.533774e-01 -7.177916e-01 4.505771e-02 -1.179532e-02
-1.427997e-01 -7.044576e-01 3.355568e-02 -2.133723e-02
-1.322219e-01 -6.632328e-01 2.629820e-02 -2.606693e-02
-1.216442e-01 -6.089914e-01 2.141762e-02 -2.892284e-02
-1.110664e-01 -5.336520e-01 1.854029e-02 -3.377369e-02
-1.004887e-01 -4.576458e-01 1.622046e-02 -3.873520e-02
-8.991090e-02 -3.808782e-01 1.450752e-02 -4.474299e-02
-7.933315e-02 -3.033286e-01 1.317520e-02 -5.082063e-02
-6.875539e-02 -2.256389e-01 1.204631e-02 -5.675775e-02
-5.817764e-02 -1.517591e-01 1.157655e-02 -6.234620e-02
-4.759989e-02 -7.728036e-02 1.114439e-02 -6.736479e-02
-3.702214e-02 -2.141653e-03 1.072048e-02 -7.190898e-02
-2.644438e-02 7.420112e-02 1.048298e-02 -7.614466e-02
-1.586663e-02 1.511092e-01 1.032341e-02 -8.025095e-02
-5.288877e-03 2.293440e-01 1.030261e-02 -8.427929e-02
5.288877e-03 3.077592e-01 1.031558e-02 -8.803600e-02
1.586663e-02 3.863636e-01 1.035912e-02 -9.153965e-02
2.644438e-02 4.651551e-01 1.045144e-02 -9.488499e-02
3.702214e-02 5.437424e-01 1.057085e-02 -9.802803e-02
4.759989e-02 6.213556e-01 1.076855e-02 -1.005383e-01
5.817764e-02 6.982477e-01 1.098850e-02 -1.027684e-01
6.875539e-02 7.745773e-01 1.121606e-02 -1.047642e-01
7.933315e-02 8.491236e-01 1.150844e-02 -1.066699e-01
8.991090e-02 9.227688e-01 1.181492e-02 -1.084435e-01
1.004887e-01 9.942818e-01 1.215569e-02 -1.098662e-01
1.110664e-01 1.063105e+00 1.256302e-02 -1.109993e-01
1.216442e-01 1.130168e+00 1.301205e-02 -1.119392e-01
1.322219e-01 1.192357e+00 1.354894e-02 -1.127571e-01
1.427997e-01 1.252535e+00 1.410285e-02 -1.135508e-01
1.533774e-01 1.310228e+00 1.466133e-02 -1.144192e-01
1.639552e-01 1.363511e+00 1.600815e-02 -1.143593e-01
1.745329e-01 1.409978e+00 1.784434e-02 -1.137369e-01
1.851107e-01 1.439237e+00 2.095886e-02 -1.121879e-01
1.956884e-01 1.456253e+00 2.479247e-02 -1.104208e-01
2.062662e-01 1.450528e+00 2.930471e-02 -1.081300e-01
2.168439e-01 1.377389e+00 4.266306e-02 -1.100972e-01
2.274217e-01 1.254020e+00 5.951009e-02 -1.136711e-01
2.379994e-01 1.206427e+00 7.058024e-02 -1.124601e-01
2.485772e-01 1.165128e+00 8.183083e-02 -1.114167e-01
2.591549e-01 1.138452e+00 9.335012e-02 -1.105137e-01
2.697327e-01 1.120122e+00 1.053713e-01 -1.120746e-01
2.803105e-01 1.105212e+00 1.175375e-01 -1.146351e-01
2.908882e-01 1.096051e+00 1.295045e-01 -1.186987e-01
3.014660e-01 1.090385e+00 1.416191e-01 -1.227560e-01
3.120437e-01 1.088989e+00 1.539143e-01 -1.268054e-01
3.226215e-01 1.098527e+00 1.671213e-01 -1.302712e-01
3.331992e-01 1.109008e+00 1.801859e-01 -1.338483e-01
3.437770e-01 1.109345e+00 1.911517e-01 -1.388835e-01
3.543547e-01 1.108726e+00 2.020828e-01 -1.439538e-01
3.649325e-01 1.107151e+00 2.129793e-01 -1.492038e-01
3.755102e-01 1.105575e+00 2.238757e-01 -1.545034e-01
3.860880e-01 1.102601e+00 2.347781e-01 -1.596521e-01
3.966657e-01 1.094036e+00 2.457043e-01 -1.642326e-01
4.072435e-01 1.085470e+00 2.566304e-01 -1.688479e-01
4.178212e-01 1.076905e+00 2.675565e-01 -1.736655e-01
4.283990e-01 1.070040e+00 2.791191e-01 -1.778900e-01
4.389768e-01 1.063365e+00 2.907524e-01 -1.820487e-01
4.495545e-01 1.056690e+00 3.023857e-01 -1.862074e-01
4.601323e-01 1.050782e+00 3.144093e-01 -1.901025e-01
4.707100e-01 1.045385e+00 3.266931e-01 -1.938217e-01
4.812878e-01 1.039989e+00 3.389769e-01 -1.975410e-01
4.918655e-01 1.034841e+00 3.514375e-01 -2.011705e-01
5.024433e-01 1.030271e+00 3.643105e-01 -2.045904e-01
5.130210e-01 1.025701e+00 3.771836e-01 -2.080103e-01
5.235988e-01 1.021131e+00 3.900566e-01 -2.114302e-01
5.759587e-01 1.001195e+00 4.571459e-01 -2.270864e-01
6.283185e-01 9.819217e-01 5.270476e-01 -2.419041e-01
6.806784e-01 9.612603e-01 5.996063e-01 -2.561594e-01
7.330383e-01 9.369357e-01 6.738028e-01 -2.700195e-01
7.853982e-01 9.112896e-01 7.484055e-01 -2.837688e-01
8.377580e-01 8.783691e-01 8.229075e-01 -2.970429e-01
8.901179e-01 8.412420e-01 8.958442e-01 -3.100747e-01
9.424778e-01 7.957015e-01 9.656502e-01 -3.226147e-01
9.948377e-01 7.501613e-01 1.035456e+00 -3.351535e-01
1.047198e+00 7.046213e-01 1.105261e+00 -3.476900e-01
1.099557e+00 6.430941e-01 1.161783e+00 -3.588955e-01
1.151917e+00 5.815668e-01 1.218304e+00 -3.700966e-01
1.204277e+00 5.200394e-01 1.274826e+00 -3.812929e-01
1.256637e+00 4.509221e-01 1.317856e+00 -3.911971e-01
1.308997e+00 3.780098e-01 1.354141e+00 -4.004504e-01
1.361357e+00 3.050964e-01 1.390426e+00 -4.096961e-01
1.413717e+00 2.308389e-01 1.418461e+00 -4.180584e-01
1.466077e+00 1.538933e-01 1.429994e+00 -4.246599e-01
1.518436e+00 7.694665e-02 1.441527e+00 -4.312502e-01
1.570796e+00 -3.361726e-07 1.453060e+00 -4.378299e-01
1.623156e+00 -5.386274e-02 1.441527e+00 -4.409334e-01
1.675516e+00 -1.077251e-01 1.429994e+00 -4.440379e-01
1.727876e+00 -1.615876e-01 1.418461e+00 -4.471433e-01
1.780236e+00 -2.135676e-01 1.390426e+00 -4.469862e-01
1.832596e+00 -2.646064e-01 1.354141e+00 -4.451982e-01
1.884956e+00 -3.156455e-01 1.317856e+00 -4.434101e-01
1.937315e+00 -3.640278e-01 1.274825e+00 -4.403725e-01
1.989675e+00 -4.070967e-01 1.218304e+00 -4.348355e-01
2.042035e+00 -4.501656e-01 1.161783e+00 -4.292981e-01
2.094395e+00 -4.932347e-01 1.105261e+00 -4.237607e-01
2.146755e+00 -5.251130e-01 1.035456e+00 -4.163867e-01
2.199115e+00 -5.569913e-01 9.656507e-01 -4.090120e-01
2.251475e+00 -5.888694e-01 8.958447e-01 -4.016365e-01
2.303835e+00 -6.131613e-01 8.228742e-01 -3.948883e-01
2.356194e+00 -6.336600e-01 7.483216e-01 -3.884527e-01
2.408554e+00 -6.541578e-01 6.737695e-01 -3.820158e-01
2.460914e+00 -6.725199e-01 6.006669e-01 -3.774504e-01
2.513274e+00 -6.866102e-01 5.304633e-01 -3.766282e-01
2.565634e+00 -7.007001e-01 4.602601e-01 -3.758019e-01
2.617994e+00 -7.147897e-01 3.900570e-01 -3.749717e-01
2.670354e+00 -7.260834e-01 3.348993e-01 -3.906992e-01
2.722714e+00 -7.373769e-01 2.797417e-01 -4.064346e-01
2.775074e+00 -7.493696e-01 2.245843e-01 -4.221781e-01
2.827433e+00 -6.784876e-01 1.855787e-01 -4.419425e-01
2.879793e+00 -5.654061e-01 1.546492e-01 -4.637146e-01
2.932153e+00 -4.448942e-01 1.237194e-01 -4.854858e-01
2.984513e+00 -3.314965e-01 9.278960e-02 -4.500005e-01
3.036873e+00 -2.209976e-01 6.185977e-02 -2.999997e-01
3.089233e+00 -1.095755e-01 5.100404e-02 -1.487187e-01
3.141593e+00 0.000000e+00 5.020179e-02 0.000000e+00
