# Angle of attack [rad] 	 Lift coefficient [-] 	 Drag coefficient [-] 	 Moment coefficient [-]
-3.141593e+00 0.000000e+00 4.749716e-02 0.000000e+00
-3.089233e+00 1.110002e-01 4.749716e-02 1.193487e-01
-3.036873e+00 2.232495e-01 5.699651e-02 2.399998e-01
-2.984513e+00 3.348750e-01 8.549489e-02 3.600004e-01
-2.932153e+00 4.463519e-01 1.141022e-01 3.180099e-01
-2.879793e+00 5.579991e-01 1.427639e-01 1.950256e-01
-2.827433e+00 6.682566e-01 1.714265e-01 7.204054e-02
-2.775074e+00 7.381120e-01 2.089910e-01 -9.031473e-03
-2.722714e+00 7.287014e-01 2.643589e-01 -4.583688e-03
-2.670354e+00 7.200148e-01 3.197268e-01 4.848529e-04
-2.617994e+00 7.113280e-01 3.750947e-01 5.417995e-03
-2.565634e+00 6.976447e-01 4.458160e-01 2.028355e-02
-2.513274e+00 6.839612e-01 5.165375e-01 3.515127e-02
-2.460914e+00 6.702771e-01 5.872595e-01 5.002158e-02
-2.408554e+00 6.522230e-01 6.609606e-01 6.521791e-02
-2.356194e+00 6.319839e-01 7.361513e-01 8.057760e-02
-2.303835e+00 6.117440e-01 8.113428e-01 9.593932e-02
-2.251475e+00 5.876825e-01 8.849861e-01 1.114450e-01
-2.199115e+00 5.559780e-01 9.555328e-01 1.272360e-01
-2.146755e+00 5.242733e-01 1.026079e+00 1.430286e-01
-2.094395e+00 4.925686e-01 1.096625e+00 1.588230e-01
-2.042035e+00 4.496133e-01 1.153964e+00 1.737772e-01
-1.989675e+00 4.066580e-01 1.211304e+00 1.887329e-01
-1.937315e+00 3.637026e-01 1.268643e+00 2.036902e-01
-1.884956e+00 3.154015e-01 1.312528e+00 2.169851e-01
-1.832596e+00 2.644275e-01 1.349686e+00 2.294499e-01
-1.780236e+00 2.134536e-01 1.386844e+00 2.419177e-01
-1.727876e+00 1.615239e-01 1.415760e+00 2.530269e-01
-1.675516e+00 1.076827e-01 1.428193e+00 2.614149e-01
-1.623156e+00 5.384151e-02 1.440627e+00 2.698091e-01
-1.570796e+00 3.360402e-07 1.453060e+00 2.782126e-01
-1.518436e+00 -5.384146e-02 1.440627e+00 2.818538e-01
-1.466077e+00 -1.076828e-01 1.428193e+00 2.855691e-01
-1.413717e+00 -1.615234e-01 1.415760e+00 2.894200e-01
-1.361357e+00 -2.134533e-01 1.386844e+00 2.896653e-01
-1.308997e+00 -2.644279e-01 1.349686e+00 2.881387e-01
-1.256637e+00 -3.154013e-01 1.312528e+00 2.866095e-01
-1.204277e+00 -3.637022e-01 1.268643e+00 2.838207e-01
-1.151917e+00 -4.066581e-01 1.211304e+00 2.785153e-01
-1.099557e+00 -4.496136e-01 1.153964e+00 2.732048e-01
-1.047198e+00 -4.925688e-01 1.096624e+00 2.678889e-01
-9.948377e-01 -5.242735e-01 1.026079e+00 2.607283e-01
-9.424778e-01 -5.559782e-01 9.555323e-01 2.535596e-01
-8.901179e-01 -5.876827e-01 8.849856e-01 2.463809e-01
-8.377580e-01 -6.134586e-01 8.113577e-01 2.393835e-01
-7.853982e-01 -6.362704e-01 7.361891e-01 2.324649e-01
-7.330383e-01 -6.539377e-01 6.609755e-01 2.269191e-01
-6.806784e-01 -6.706645e-01 5.861817e-01 2.219977e-01
-6.283185e-01 -6.847748e-01 5.130705e-01 2.194429e-01
-5.759587e-01 -6.978525e-01 4.426585e-01 2.197884e-01
-5.235988e-01 -7.113281e-01 3.750943e-01 2.233610e-01
-5.130210e-01 -7.144157e-01 3.621327e-01 2.249522e-01
-5.024433e-01 -7.175033e-01 3.491712e-01 2.265434e-01
-4.918655e-01 -7.205909e-01 3.362096e-01 2.281346e-01
-4.812878e-01 -7.240718e-01 3.236644e-01 2.303435e-01
-4.707100e-01 -7.277213e-01 3.112976e-01 2.328171e-01
-4.601323e-01 -7.313708e-01 2.989308e-01 2.352906e-01
-4.495545e-01 -7.353711e-01 2.868265e-01 2.382252e-01
-4.389768e-01 -7.398975e-01 2.751160e-01 2.418513e-01
-4.283990e-01 -7.444239e-01 2.634056e-01 2.454773e-01
-4.178212e-01 -7.490802e-01 2.517664e-01 2.492572e-01
-4.072435e-01 -7.549063e-01 2.407688e-01 2.544222e-01
-3.966657e-01 -7.607324e-01 2.297713e-01 2.604288e-01
-3.860880e-01 -7.665584e-01 2.187737e-01 2.657543e-01
-3.755102e-01 -8.006876e-01 2.123958e-01 2.541315e-01
-3.649325e-01 -8.470116e-01 2.071731e-01 2.363496e-01
-3.543547e-01 -8.905943e-01 2.019504e-01 2.179646e-01
-3.437770e-01 -9.331165e-01 1.967656e-01 1.982143e-01
-3.331992e-01 -9.746225e-01 1.916188e-01 1.772456e-01
-3.226215e-01 -1.016018e+00 1.869194e-01 1.562218e-01
-3.120437e-01 -1.057351e+00 1.821890e-01 1.357377e-01
-3.014660e-01 -1.098648e+00 1.763647e-01 1.155242e-01
-2.908882e-01 -1.139919e+00 1.712953e-01 9.531031e-02
-2.803105e-01 -1.181172e+00 1.664295e-01 7.509626e-02
-2.697327e-01 -1.197913e+00 1.595754e-01 5.910976e-02
-2.591549e-01 -1.199342e+00 1.515029e-01 4.544499e-02
-2.485772e-01 -1.162979e+00 1.404604e-01 3.829909e-02
-2.379994e-01 -1.120770e+00 1.290024e-01 3.110654e-02
-2.274217e-01 -1.074633e+00 1.172633e-01 2.269808e-02
-2.168439e-01 -1.025182e+00 1.059186e-01 1.179335e-02
-2.062662e-01 -9.756819e-01 9.519597e-02 1.198736e-03
-1.956884e-01 -9.265711e-01 8.588489e-02 -8.418615e-03
-1.851107e-01 -8.756649e-01 7.740904e-02 -1.637780e-02
-1.745329e-01 -8.232371e-01 6.937282e-02 -2.341385e-02
-1.639552e-01 -7.821113e-01 5.756363e-02 -3.210202e-02
-1.533774e-01 -7.513752e-01 4.475160e-02 -3.989070e-02
-1.427997e-01 -7.350881e-01 3.080416e-02 -4.606821e-02
-1.322219e-01 -6.928361e-01 2.315799e-02 -4.898299e-02
-1.216442e-01 -6.379499e-01 1.870325e-02 -5.073845e-02
-1.110664e-01 -5.541613e-01 1.677841e-02 -5.535038e-02
-1.004887e-01 -4.708401e-01 1.508454e-02 -5.989515e-02
-8.991090e-02 -3.882920e-01 1.369825e-02 -6.455728e-02
-7.933315e-02 -3.065024e-01 1.265622e-02 -6.910089e-02
-6.875539e-02 -2.253108e-01 1.176732e-02 -7.353465e-02
-5.817764e-02 -1.479882e-01 1.133253e-02 -7.761940e-02
-4.759989e-02 -7.099842e-02 1.097831e-02 -8.140851e-02
-3.702214e-02 5.678243e-03 1.066962e-02 -8.491426e-02
-2.644438e-02 8.261026e-02 1.046673e-02 -8.827118e-02
-1.586663e-02 1.599690e-01 1.033233e-02 -9.156551e-02
-5.288877e-03 2.389744e-01 1.039005e-02 -9.476613e-02
5.288877e-03 3.176469e-01 1.046493e-02 -9.779012e-02
1.586663e-02 3.960074e-01 1.055116e-02 -1.006511e-01
2.644438e-02 4.741694e-01 1.057525e-02 -1.032935e-01
3.702214e-02 5.519119e-01 1.062249e-02 -1.058138e-01
4.759989e-02 6.280566e-01 1.081086e-02 -1.079775e-01
5.817764e-02 7.037981e-01 1.098790e-02 -1.099166e-01
6.875539e-02 7.792765e-01 1.117588e-02 -1.116583e-01
7.933315e-02 8.534998e-01 1.141295e-02 -1.132533e-01
8.991090e-02 9.269466e-01 1.166384e-02 -1.147370e-01
1.004887e-01 9.984584e-01 1.195684e-02 -1.159393e-01
1.110664e-01 1.068044e+00 1.229915e-02 -1.168925e-01
1.216442e-01 1.136380e+00 1.266989e-02 -1.176816e-01
1.322219e-01 1.201391e+00 1.308392e-02 -1.182080e-01
1.427997e-01 1.265259e+00 1.349274e-02 -1.186756e-01
1.533774e-01 1.328562e+00 1.386378e-02 -1.191200e-01
1.639552e-01 1.388948e+00 1.467296e-02 -1.184230e-01
1.745329e-01 1.443089e+00 1.564945e-02 -1.170513e-01
1.851107e-01 1.484238e+00 1.719081e-02 -1.145988e-01
1.956884e-01 1.516105e+00 1.912229e-02 -1.117798e-01
2.062662e-01 1.530729e+00 2.160257e-02 -1.082548e-01
2.168439e-01 1.399778e+00 3.795287e-02 -1.106033e-01
2.274217e-01 1.216175e+00 5.956751e-02 -1.152026e-01
2.379994e-01 1.155335e+00 6.939927e-02 -1.135636e-01
2.485772e-01 1.104802e+00 7.893675e-02 -1.120865e-01
2.591549e-01 1.075179e+00 8.811347e-02 -1.107362e-01
2.697327e-01 1.055137e+00 9.734410e-02 -1.104453e-01
2.803105e-01 1.039100e+00 1.066150e-01 -1.104716e-01
2.908882e-01 1.030373e+00 1.160869e-01 -1.114525e-01
3.014660e-01 1.025980e+00 1.258590e-01 -1.128625e-01
3.120437e-01 1.026885e+00 1.359978e-01 -1.147969e-01
3.226215e-01 1.040506e+00 1.478973e-01 -1.180271e-01
3.331992e-01 1.056630e+00 1.602101e-01 -1.217659e-01
3.437770e-01 1.068929e+00 1.723704e-01 -1.265517e-01
3.543547e-01 1.078362e+00 1.842269e-01 -1.317234e-01
3.649325e-01 1.084928e+00 1.957795e-01 -1.374330e-01
3.755102e-01 1.091495e+00 2.073321e-01 -1.431948e-01
3.860880e-01 1.095083e+00 2.187737e-01 -1.488704e-01
3.966657e-01 1.086760e+00 2.297713e-01 -1.542379e-01
4.072435e-01 1.078438e+00 2.407688e-01 -1.596420e-01
4.178212e-01 1.070116e+00 2.517664e-01 -1.652590e-01
4.283990e-01 1.063463e+00 2.634056e-01 -1.701329e-01
4.389768e-01 1.056996e+00 2.751160e-01 -1.749242e-01
4.495545e-01 1.050529e+00 2.868265e-01 -1.797156e-01
4.601323e-01 1.044814e+00 2.989308e-01 -1.841714e-01
4.707100e-01 1.039599e+00 3.112976e-01 -1.884035e-01
4.812878e-01 1.034385e+00 3.236644e-01 -1.926356e-01
4.918655e-01 1.029412e+00 3.362096e-01 -1.967515e-01
5.024433e-01 1.025004e+00 3.491712e-01 -2.005962e-01
5.130210e-01 1.020595e+00 3.621327e-01 -2.044409e-01
5.235988e-01 1.016187e+00 3.750943e-01 -2.082856e-01
5.759587e-01 9.969308e-01 4.426585e-01 -2.256387e-01
6.283185e-01 9.782505e-01 5.130705e-01 -2.418664e-01
6.806784e-01 9.580926e-01 5.861817e-01 -2.567566e-01
7.330383e-01 9.341972e-01 6.609755e-01 -2.711894e-01
7.853982e-01 9.089581e-01 7.361891e-01 -2.855139e-01
8.377580e-01 8.763694e-01 8.113577e-01 -2.993186e-01
8.901179e-01 8.395461e-01 8.849856e-01 -3.128855e-01
9.424778e-01 7.942536e-01 9.555323e-01 -3.259532e-01
9.948377e-01 7.489614e-01 1.026079e+00 -3.390304e-01
1.047198e+00 7.036695e-01 1.096624e+00 -3.521147e-01
1.099557e+00 6.423046e-01 1.153964e+00 -3.638960e-01
1.151917e+00 5.809397e-01 1.211304e+00 -3.756825e-01
1.204277e+00 5.195748e-01 1.268643e+00 -3.874729e-01
1.256637e+00 4.505735e-01 1.312528e+00 -3.980115e-01
1.308997e+00 3.777543e-01 1.349686e+00 -4.079252e-01
1.361357e+00 3.049336e-01 1.386844e+00 -4.178412e-01
1.413717e+00 2.307481e-01 1.415760e+00 -4.268985e-01
1.466077e+00 1.538327e-01 1.428193e+00 -4.342364e-01
1.518436e+00 7.691636e-02 1.440627e+00 -4.415744e-01
1.570796e+00 -3.360402e-07 1.453060e+00 -4.489123e-01
1.623156e+00 -5.384151e-02 1.440627e+00 -4.523538e-01
1.675516e+00 -1.076827e-01 1.428193e+00 -4.557964e-01
1.727876e+00 -1.615239e-01 1.415760e+00 -4.592400e-01
1.780236e+00 -2.134536e-01 1.386844e+00 -4.594058e-01
1.832596e+00 -2.644275e-01 1.349686e+00 -4.579331e-01
1.884956e+00 -3.154015e-01 1.312528e+00 -4.564605e-01
1.937315e+00 -3.637026e-01 1.268643e+00 -4.537298e-01
1.989675e+00 -4.066580e-01 1.211304e+00 -4.484821e-01
2.042035e+00 -4.496133e-01 1.153964e+00 -4.432347e-01
2.094395e+00 -4.925686e-01 1.096625e+00 -4.379876e-01
2.146755e+00 -5.242733e-01 1.026079e+00 -4.308999e-01
2.199115e+00 -5.559780e-01 9.555328e-01 -4.238125e-01
2.251475e+00 -5.876825e-01 8.849861e-01 -4.167251e-01
2.303835e+00 -6.117440e-01 8.113428e-01 -4.103111e-01
2.356194e+00 -6.319839e-01 7.361513e-01 -4.042341e-01
2.408554e+00 -6.522230e-01 6.609606e-01 -3.981574e-01
2.460914e+00 -6.702771e-01 5.872595e-01 -3.940436e-01
2.513274e+00 -6.839612e-01 5.165375e-01 -3.938553e-01
2.565634e+00 -6.976447e-01 4.458160e-01 -3.936666e-01
2.617994e+00 -7.113280e-01 3.750947e-01 -3.934776e-01
2.670354e+00 -7.105558e-01 3.212886e-01 -4.092914e-01
2.722714e+00 -7.097835e-01 2.674827e-01 -4.251138e-01
2.775074e+00 -7.097473e-01 2.136772e-01 -4.409450e-01
2.827433e+00 -6.392427e-01 1.761678e-01 -4.569796e-01
2.879793e+00 -5.327021e-01 1.468067e-01 -4.731127e-01
2.932153e+00 -4.241657e-01 1.174454e-01 -4.892450e-01
2.984513e+00 -3.175404e-01 8.808405e-02 -4.500005e-01
3.036873e+00 -2.116936e-01 5.872288e-02 -2.999997e-01
3.089233e+00 -1.052755e-01 4.835584e-02 -1.491858e-01
3.141593e+00 0.000000e+00 4.749716e-02 0.000000e+00
