# Angle of attack [rad] 	 Lift coefficient [-] 	 Drag coefficient [-] 	 Moment coefficient [-]
-3.141593e+00 0.000000e+00 5.173381e-02 0.000000e+00
-3.089233e+00 1.206102e-01 5.173381e-02 1.187633e-01
-3.036873e+00 2.438462e-01 6.208037e-02 2.399998e-01
-2.984513e+00 3.657697e-01 9.312038e-02 3.600004e-01
-2.932153e+00 4.840692e-01 1.248854e-01 3.210350e-01
-2.879793e+00 6.016375e-01 1.570129e-01 2.025885e-01
-2.827433e+00 7.131536e-01 1.891409e-01 8.414098e-02
-2.775074e+00 7.800690e-01 2.293569e-01 7.973417e-03
-2.722714e+00 7.586813e-01 2.857487e-01 1.759163e-02
-2.670354e+00 7.377160e-01 3.421405e-01 2.797642e-02
-2.617994e+00 7.167506e-01 3.985323e-01 3.875972e-02
-2.565634e+00 7.024308e-01 4.684419e-01 5.289485e-02
-2.513274e+00 6.881108e-01 5.383516e-01 6.704018e-02
-2.460914e+00 6.737902e-01 6.082615e-01 8.119764e-02
-2.408554e+00 6.552538e-01 6.810250e-01 9.583133e-02
-2.356194e+00 6.346093e-01 7.552153e-01 1.107044e-01
-2.303835e+00 6.139641e-01 8.294061e-01 1.255853e-01
-2.251475e+00 5.895418e-01 9.019954e-01 1.405922e-01
-2.199115e+00 5.575653e-01 9.713819e-01 1.558411e-01
-2.146755e+00 5.255887e-01 1.040768e+00 1.710971e-01
-2.094395e+00 4.936120e-01 1.110154e+00 1.863617e-01
-2.042035e+00 4.504785e-01 1.166212e+00 2.006292e-01
-1.989675e+00 4.073452e-01 1.222270e+00 2.149061e-01
-1.937315e+00 3.642120e-01 1.278327e+00 2.291939e-01
-1.884956e+00 3.157837e-01 1.320874e+00 2.417166e-01
-1.832596e+00 2.647077e-01 1.356665e+00 2.533648e-01
-1.780236e+00 2.136321e-01 1.392456e+00 2.650312e-01
-1.727876e+00 1.616236e-01 1.419990e+00 2.753163e-01
-1.675516e+00 1.077492e-01 1.431014e+00 2.828194e-01
-1.623156e+00 5.387476e-02 1.442037e+00 2.903593e-01
-1.570796e+00 3.362477e-07 1.453060e+00 2.979512e-01
-1.518436e+00 -5.387471e-02 1.442037e+00 3.017534e-01
-1.466077e+00 -1.077493e-01 1.431014e+00 3.058848e-01
-1.413717e+00 -1.616232e-01 1.419991e+00 3.106135e-01
-1.361357e+00 -2.136319e-01 1.392456e+00 3.106747e-01
-1.308997e+00 -2.647080e-01 1.356665e+00 3.085430e-01
-1.256637e+00 -3.157834e-01 1.320874e+00 3.064093e-01
-1.204277e+00 -3.642116e-01 1.278328e+00 3.030447e-01
-1.151917e+00 -4.073453e-01 1.222270e+00 2.972197e-01
-1.099557e+00 -4.504788e-01 1.166211e+00 2.913916e-01
-1.047198e+00 -4.936122e-01 1.110153e+00 2.855602e-01
-9.948377e-01 -5.255889e-01 1.040767e+00 2.779257e-01
-9.424778e-01 -5.575655e-01 9.713814e-01 2.702862e-01
-8.901179e-01 -5.895420e-01 9.019950e-01 2.626407e-01
-8.377580e-01 -6.156511e-01 8.294498e-01 2.551539e-01
-7.853982e-01 -6.388267e-01 7.553253e-01 2.477396e-01
-7.330383e-01 -6.569408e-01 6.810687e-01 2.416090e-01
-6.806784e-01 -6.741382e-01 6.072106e-01 2.360338e-01
-6.283185e-01 -6.888004e-01 5.349648e-01 2.325264e-01
-5.759587e-01 -7.025275e-01 4.653521e-01 2.316601e-01
-5.235988e-01 -7.167507e-01 3.985319e-01 2.337170e-01
-5.130210e-01 -7.200144e-01 3.857090e-01 2.349162e-01
-5.024433e-01 -7.232780e-01 3.728861e-01 2.361153e-01
-4.918655e-01 -7.265416e-01 3.600632e-01 2.373145e-01
-4.812878e-01 -7.302151e-01 3.476506e-01 2.390677e-01
-4.707100e-01 -7.340642e-01 3.354138e-01 2.410583e-01
-4.601323e-01 -7.379133e-01 3.231770e-01 2.430489e-01
-4.495545e-01 -7.421248e-01 3.111991e-01 2.454510e-01
-4.389768e-01 -7.468801e-01 2.996095e-01 2.484703e-01
-4.283990e-01 -7.516353e-01 2.880200e-01 2.514896e-01
-4.178212e-01 -7.565243e-01 2.765008e-01 2.546457e-01
-4.072435e-01 -7.626167e-01 2.656151e-01 2.590329e-01
-3.966657e-01 -7.687092e-01 2.547294e-01 2.639111e-01
-3.860880e-01 -7.748016e-01 2.438437e-01 2.683919e-01
-3.755102e-01 -7.938963e-01 2.347656e-01 2.692200e-01
-3.649325e-01 -8.195888e-01 2.261394e-01 2.680137e-01
-3.543547e-01 -8.417559e-01 2.175132e-01 2.664555e-01
-3.437770e-01 -8.571330e-01 2.091383e-01 2.573233e-01
-3.331992e-01 -8.659135e-01 2.010148e-01 2.407032e-01
-3.226215e-01 -8.742150e-01 1.931524e-01 2.240511e-01
-3.120437e-01 -8.822469e-01 1.852719e-01 2.077139e-01
-3.014660e-01 -8.901125e-01 1.767531e-01 1.915339e-01
-2.908882e-01 -8.978677e-01 1.696667e-01 1.753541e-01
-2.803105e-01 -9.055460e-01 1.627696e-01 1.591744e-01
-2.697327e-01 -9.055002e-01 1.547095e-01 1.442633e-01
-2.591549e-01 -9.006505e-01 1.459729e-01 1.300484e-01
-2.485772e-01 -8.838819e-01 1.356952e-01 1.180611e-01
-2.379994e-01 -8.651353e-01 1.251966e-01 1.063728e-01
-2.274217e-01 -8.449492e-01 1.145364e-01 9.419226e-02
-2.168439e-01 -8.234381e-01 1.040715e-01 8.074760e-02
-2.062662e-01 -8.015783e-01 9.393510e-02 6.729893e-02
-1.956884e-01 -7.794361e-01 8.457841e-02 5.396640e-02
-1.851107e-01 -7.561254e-01 7.566868e-02 4.130150e-02
-1.745329e-01 -7.314042e-01 6.695421e-02 2.901545e-02
-1.639552e-01 -7.109082e-01 5.626594e-02 1.613363e-02
-1.533774e-01 -6.938955e-01 4.516320e-02 3.666309e-03
-1.427997e-01 -6.823058e-01 3.469500e-02 -8.064901e-03
-1.322219e-01 -6.418097e-01 2.778312e-02 -1.410966e-02
-1.216442e-01 -5.881439e-01 2.284174e-02 -1.784055e-02
-1.110664e-01 -5.185954e-01 1.949658e-02 -2.294399e-02
-1.004887e-01 -4.477231e-01 1.684852e-02 -2.819666e-02
-8.991090e-02 -3.751430e-01 1.496108e-02 -3.471822e-02
-7.933315e-02 -3.007872e-01 1.346360e-02 -4.140115e-02
-6.875539e-02 -2.257502e-01 1.219536e-02 -4.795565e-02
-5.817764e-02 -1.530974e-01 1.170617e-02 -5.419619e-02
-4.759989e-02 -7.957189e-02 1.122939e-02 -5.978743e-02
-3.702214e-02 -5.035396e-03 1.074405e-02 -6.484770e-02
-2.644438e-02 7.107412e-02 1.049018e-02 -6.950729e-02
-1.586663e-02 1.478005e-01 1.031835e-02 -7.400891e-02
-5.288877e-03 2.257121e-01 1.025308e-02 -7.844526e-02
5.288877e-03 3.040127e-01 1.023099e-02 -8.256916e-02
1.586663e-02 3.827113e-01 1.025034e-02 -8.639621e-02
2.644438e-02 4.617569e-01 1.038131e-02 -9.011045e-02
3.702214e-02 5.406850e-01 1.054159e-02 -9.358504e-02
4.759989e-02 6.188862e-01 1.074458e-02 -9.628170e-02
5.817764e-02 6.962278e-01 1.098876e-02 -9.867117e-02
6.875539e-02 7.728834e-01 1.123449e-02 -1.008080e-01
7.933315e-02 8.475519e-01 1.155511e-02 -1.028855e-01
8.991090e-02 9.212716e-01 1.189236e-02 -1.048194e-01
1.004887e-01 9.927843e-01 1.226109e-02 -1.063600e-01
1.110664e-01 1.061315e+00 1.270798e-02 -1.075810e-01
1.216442e-01 1.127874e+00 1.320631e-02 -1.085875e-01
1.322219e-01 1.188857e+00 1.383024e-02 -1.095029e-01
1.427997e-01 1.247208e+00 1.450511e-02 -1.103836e-01
1.533774e-01 1.301092e+00 1.526501e-02 -1.112951e-01
1.639552e-01 1.349103e+00 1.695973e-02 -1.116173e-01
1.745329e-01 1.391222e+00 1.929513e-02 -1.115796e-01
1.851107e-01 1.413747e+00 2.320873e-02 -1.107010e-01
1.956884e-01 1.422351e+00 2.800431e-02 -1.096334e-01
2.062662e-01 1.405100e+00 3.366753e-02 -1.080714e-01
2.168439e-01 1.360985e+00 4.533112e-02 -1.096777e-01
2.274217e-01 1.271220e+00 5.948502e-02 -1.124512e-01
2.379994e-01 1.233317e+00 7.124919e-02 -1.115691e-01
2.485772e-01 1.199300e+00 8.347016e-02 -1.108665e-01
2.591549e-01 1.174292e+00 9.631639e-02 -1.103645e-01
2.697327e-01 1.156932e+00 1.099182e-01 -1.129975e-01
2.803105e-01 1.142660e+00 1.237245e-01 -1.169934e-01
2.908882e-01 1.133254e+00 1.371048e-01 -1.228033e-01
3.014660e-01 1.126866e+00 1.505464e-01 -1.283601e-01
3.120437e-01 1.124168e+00 1.640631e-01 -1.336075e-01
3.226215e-01 1.131393e+00 1.780106e-01 -1.372067e-01
3.331992e-01 1.138677e+00 1.915011e-01 -1.406923e-01
3.437770e-01 1.132239e+00 2.017902e-01 -1.458687e-01
3.543547e-01 1.125926e+00 2.121972e-01 -1.508817e-01
3.649325e-01 1.119738e+00 2.227220e-01 -1.558199e-01
3.755102e-01 1.113551e+00 2.332468e-01 -1.607886e-01
3.860880e-01 1.106860e+00 2.438437e-01 -1.656030e-01
3.966657e-01 1.098157e+00 2.547294e-01 -1.698221e-01
4.072435e-01 1.089454e+00 2.656151e-01 -1.740626e-01
4.178212e-01 1.080750e+00 2.765008e-01 -1.784273e-01
4.283990e-01 1.073766e+00 2.880200e-01 -1.822840e-01
4.389768e-01 1.066973e+00 2.996095e-01 -1.860843e-01
4.495545e-01 1.060179e+00 3.111991e-01 -1.898847e-01
4.601323e-01 1.054162e+00 3.231770e-01 -1.934621e-01
4.707100e-01 1.048663e+00 3.354138e-01 -1.968908e-01
4.812878e-01 1.043164e+00 3.476506e-01 -2.003196e-01
4.918655e-01 1.037916e+00 3.600632e-01 -2.036736e-01
5.024433e-01 1.033254e+00 3.728861e-01 -2.068529e-01
5.130210e-01 1.028593e+00 3.857090e-01 -2.100322e-01
5.235988e-01 1.023932e+00 3.985319e-01 -2.132115e-01
5.759587e-01 1.003610e+00 4.653521e-01 -2.279064e-01
6.283185e-01 9.840013e-01 5.349648e-01 -2.419255e-01
6.806784e-01 9.630546e-01 6.072106e-01 -2.558611e-01
7.330383e-01 9.384869e-01 6.810687e-01 -2.693969e-01
7.853982e-01 9.126102e-01 7.553253e-01 -2.828061e-01
8.377580e-01 8.795018e-01 8.294498e-01 -2.957596e-01
8.901179e-01 8.422027e-01 9.019950e-01 -3.084645e-01
9.424778e-01 7.965217e-01 9.713814e-01 -3.206799e-01
9.948377e-01 7.508410e-01 1.040767e+00 -3.328866e-01
1.047198e+00 7.051605e-01 1.110153e+00 -3.450851e-01
1.099557e+00 6.435413e-01 1.166211e+00 -3.559345e-01
1.151917e+00 5.819220e-01 1.222270e+00 -3.667742e-01
1.204277e+00 5.203027e-01 1.278328e+00 -3.776045e-01
1.256637e+00 4.511195e-01 1.320874e+00 -3.871192e-01
1.308997e+00 3.781546e-01 1.356665e+00 -3.959689e-01
1.361357e+00 3.051886e-01 1.392456e+00 -4.048066e-01
1.413717e+00 2.308904e-01 1.419991e+00 -4.127481e-01
1.466077e+00 1.539276e-01 1.431014e+00 -4.189066e-01
1.518436e+00 7.696380e-02 1.442037e+00 -4.250498e-01
1.570796e+00 -3.362477e-07 1.453060e+00 -4.311784e-01
1.623156e+00 -5.387476e-02 1.442037e+00 -4.341047e-01
1.675516e+00 -1.077492e-01 1.431014e+00 -4.370315e-01
1.727876e+00 -1.616236e-01 1.419990e+00 -4.399588e-01
1.780236e+00 -2.136321e-01 1.392456e+00 -4.396362e-01
1.832596e+00 -2.647077e-01 1.356665e+00 -4.376888e-01
1.884956e+00 -3.157837e-01 1.320874e+00 -4.357408e-01
1.937315e+00 -3.642120e-01 1.278327e+00 -4.325502e-01
1.989675e+00 -4.073452e-01 1.222270e+00 -4.268739e-01
2.042035e+00 -4.504785e-01 1.166212e+00 -4.211969e-01
2.094395e+00 -4.936120e-01 1.110154e+00 -4.155194e-01
2.146755e+00 -5.255887e-01 1.040768e+00 -4.080139e-01
2.199115e+00 -5.575653e-01 9.713819e-01 -4.005072e-01
2.251475e+00 -5.895418e-01 9.019954e-01 -3.929991e-01
2.303835e+00 -6.139641e-01 8.294061e-01 -3.860986e-01
2.356194e+00 -6.346093e-01 7.552153e-01 -3.795003e-01
2.408554e+00 -6.552538e-01 6.810250e-01 -3.728999e-01
2.460914e+00 -6.737902e-01 6.082615e-01 -3.681262e-01
2.513274e+00 -6.881108e-01 5.383516e-01 -3.670063e-01
2.565634e+00 -7.024308e-01 4.684419e-01 -3.658810e-01
2.617994e+00 -7.167506e-01 3.985323e-01 -3.647506e-01
2.670354e+00 -7.348789e-01 3.426089e-01 -3.803510e-01
2.722714e+00 -7.530070e-01 2.866857e-01 -3.959559e-01
2.775074e+00 -7.715645e-01 2.307625e-01 -4.115654e-01
2.827433e+00 -7.002562e-01 1.909094e-01 -4.334160e-01
2.879793e+00 -5.835466e-01 1.590915e-01 -4.583856e-01
2.932153e+00 -4.581257e-01 1.272733e-01 -4.833541e-01
2.984513e+00 -3.410453e-01 9.545502e-02 -4.500005e-01
3.036873e+00 -2.273634e-01 6.363664e-02 -2.999997e-01
3.089233e+00 -1.125416e-01 5.250409e-02 -1.484542e-01
3.141593e+00 0.000000e+00 5.173381e-02 0.000000e+00
