# Angle of attack [rad] 	 Lift coefficient [-] 	 Drag coefficient [-] 	 Moment coefficient [-]
-3.141593e+00 0.000000e+00 3.888966e-02 1.884394e-01
-3.089233e+00 1.470851e-01 3.888966e-02 1.953441e-01
-3.036873e+00 2.955176e-01 4.666754e-02 2.399998e-01
-2.984513e+00 4.432773e-01 7.000146e-02 3.600004e-01
-2.932153e+00 5.547752e-01 9.739834e-02 3.012323e-01
-2.879793e+00 6.481427e-01 1.268267e-01 1.530819e-01
-2.827433e+00 7.415112e-01 1.562553e-01 4.929733e-03
-2.775074e+00 7.955401e-01 1.950901e-01 -8.777353e-02
-2.722714e+00 7.709065e-01 2.527369e-01 -6.959720e-02
-2.670354e+00 7.462625e-01 3.103839e-01 -5.141817e-02
-2.617994e+00 7.215930e-01 3.680308e-01 -3.295588e-02
-2.565634e+00 7.067044e-01 4.389966e-01 -1.776992e-02
-2.513274e+00 6.918158e-01 5.099626e-01 -2.583873e-03
-2.460914e+00 6.769270e-01 5.809292e-01 1.250789e-02
-2.408554e+00 6.579597e-01 6.549129e-01 2.780367e-02
-2.356194e+00 6.369533e-01 7.304053e-01 4.322132e-02
-2.303835e+00 6.159465e-01 8.058984e-01 5.863923e-02
-2.251475e+00 5.912023e-01 8.798597e-01 7.421204e-02
-2.199115e+00 5.589831e-01 9.507574e-01 9.009453e-02
-2.146755e+00 5.267637e-01 1.021654e+00 1.059773e-01
-2.094395e+00 4.945443e-01 1.092550e+00 1.218603e-01
-2.042035e+00 4.512516e-01 1.150276e+00 1.369848e-01
-1.989675e+00 4.079589e-01 1.208002e+00 1.521090e-01
-1.937315e+00 3.646666e-01 1.265727e+00 1.672328e-01
-1.884956e+00 3.161248e-01 1.310015e+00 1.807543e-01
-1.832596e+00 2.649582e-01 1.347584e+00 1.934780e-01
-1.780236e+00 2.137916e-01 1.385152e+00 2.062010e-01
-1.727876e+00 1.617124e-01 1.414484e+00 2.175794e-01
-1.675516e+00 1.078081e-01 1.427343e+00 2.262684e-01
-1.623156e+00 5.390410e-02 1.440201e+00 2.349569e-01
-1.570796e+00 3.364308e-07 1.453060e+00 2.436452e-01
-1.518436e+00 -5.390404e-02 1.440201e+00 2.473705e-01
-1.466077e+00 -1.078082e-01 1.427343e+00 2.510961e-01
-1.413717e+00 -1.617119e-01 1.414484e+00 2.548221e-01
-1.361357e+00 -2.137913e-01 1.385152e+00 2.552749e-01
-1.308997e+00 -2.649585e-01 1.347584e+00 2.540912e-01
-1.256637e+00 -3.161246e-01 1.310015e+00 2.529073e-01
-1.204277e+00 -3.646662e-01 1.265728e+00 2.504753e-01
-1.151917e+00 -4.079590e-01 1.208002e+00 2.455468e-01
-1.099557e+00 -4.512518e-01 1.150276e+00 2.406186e-01
-1.047198e+00 -4.945445e-01 1.092550e+00 2.356905e-01
-9.948377e-01 -5.267640e-01 1.021654e+00 2.290093e-01
-9.424778e-01 -5.589833e-01 9.507569e-01 2.223282e-01
-8.901179e-01 -5.912025e-01 8.798593e-01 2.156468e-01
-8.377580e-01 -6.176092e-01 8.059045e-01 2.092548e-01
-7.853982e-01 -6.411097e-01 7.304211e-01 2.030076e-01
-7.330383e-01 -6.596224e-01 6.549190e-01 1.983420e-01
-6.806784e-01 -6.772401e-01 5.798437e-01 1.942937e-01
-6.283185e-01 -6.923960e-01 5.064711e-01 1.924638e-01
-5.759587e-01 -7.067017e-01 4.358184e-01 1.937348e-01
-5.235988e-01 -7.215931e-01 3.680304e-01 1.984536e-01
-5.130210e-01 -7.250139e-01 3.550270e-01 2.003362e-01
-5.024433e-01 -7.284346e-01 3.420237e-01 2.022188e-01
-4.918655e-01 -7.318553e-01 3.290203e-01 2.041014e-01
-4.812878e-01 -7.357007e-01 3.164352e-01 2.066442e-01
-4.707100e-01 -7.397281e-01 3.040293e-01 2.094699e-01
-4.601323e-01 -7.437554e-01 2.916234e-01 2.122957e-01
-4.495545e-01 -7.481559e-01 2.794810e-01 2.156145e-01
-4.389768e-01 -7.531158e-01 2.677339e-01 2.196729e-01
-4.283990e-01 -7.580758e-01 2.559868e-01 2.237313e-01
-4.178212e-01 -7.631844e-01 2.443107e-01 2.278665e-01
-4.072435e-01 -7.696309e-01 2.332743e-01 2.326927e-01
-3.966657e-01 -7.760774e-01 2.222380e-01 2.375063e-01
-3.860880e-01 -7.825239e-01 2.112016e-01 2.423580e-01
-3.755102e-01 -7.901353e-01 2.006850e-01 2.484627e-01
-3.649325e-01 -7.980043e-01 1.902984e-01 2.549033e-01
-3.543547e-01 -8.058785e-01 1.799118e-01 2.613440e-01
-3.437770e-01 -8.146979e-01 1.698126e-01 2.688376e-01
-3.331992e-01 -8.244553e-01 1.600007e-01 2.773842e-01
-3.226215e-01 -8.233715e-01 1.505222e-01 2.748584e-01
-3.120437e-01 -8.202831e-01 1.413307e-01 2.695171e-01
-3.014660e-01 -8.168277e-01 1.330816e-01 2.607065e-01
-2.908882e-01 -8.054876e-01 1.248355e-01 2.437435e-01
-2.803105e-01 -7.876981e-01 1.165919e-01 2.201104e-01
-2.697327e-01 -7.702792e-01 1.083795e-01 1.964050e-01
-2.591549e-01 -7.530953e-01 1.001855e-01 1.726593e-01
-2.485772e-01 -7.364943e-01 9.203391e-02 1.488247e-01
-2.379994e-01 -7.200032e-01 8.388886e-02 1.250238e-01
-2.274217e-01 -7.035964e-01 7.574758e-02 1.012318e-01
-2.168439e-01 -6.855921e-01 6.761110e-02 7.804486e-02
-2.062662e-01 -6.671948e-01 5.960562e-02 5.502353e-02
-1.956884e-01 -6.480638e-01 5.133174e-02 3.231887e-02
-1.851107e-01 -6.284683e-01 4.318366e-02 9.459939e-03
-1.745329e-01 -6.086205e-01 3.515403e-02 -1.347964e-02
-1.639552e-01 -5.884523e-01 2.731998e-02 -3.639053e-02
-1.533774e-01 -5.626899e-01 2.000847e-02 -5.855068e-02
-1.427997e-01 -5.265238e-01 1.359783e-02 -7.930582e-02
-1.322219e-01 -4.556953e-01 1.040921e-02 -9.282841e-02
-1.216442e-01 -3.698455e-01 8.918714e-03 -1.016305e-01
-1.110664e-01 -2.935987e-01 7.528451e-03 -1.046472e-01
-1.004887e-01 -2.181053e-01 7.088002e-03 -1.072145e-01
-8.991090e-02 -1.430864e-01 6.800502e-03 -1.094416e-01
-7.933315e-02 -6.851300e-02 6.567505e-03 -1.114426e-01
-6.875539e-02 5.583859e-03 6.453017e-03 -1.131482e-01
-5.817764e-02 7.940703e-02 6.412893e-03 -1.146950e-01
-4.759989e-02 1.532410e-01 6.342039e-03 -1.162070e-01
-3.702214e-02 2.266439e-01 6.335263e-03 -1.176736e-01
-2.644438e-02 3.001054e-01 6.332604e-03 -1.191353e-01
-1.586663e-02 3.731128e-01 6.332722e-03 -1.206661e-01
-5.288877e-03 4.458216e-01 6.374479e-03 -1.220825e-01
5.288877e-03 5.184903e-01 6.433135e-03 -1.234872e-01
1.586663e-02 5.909812e-01 6.431823e-03 -1.247923e-01
2.644438e-02 6.631941e-01 6.526393e-03 -1.259657e-01
3.702214e-02 7.353426e-01 6.560331e-03 -1.272007e-01
4.759989e-02 8.070875e-01 6.683512e-03 -1.283763e-01
5.817764e-02 8.786539e-01 6.806037e-03 -1.294107e-01
6.875539e-02 9.498218e-01 6.929630e-03 -1.304681e-01
7.933315e-02 1.020409e+00 7.055969e-03 -1.313344e-01
8.991090e-02 1.090574e+00 7.212583e-03 -1.321677e-01
1.004887e-01 1.159570e+00 7.507701e-03 -1.328292e-01
1.110664e-01 1.225982e+00 8.009217e-03 -1.330542e-01
1.216442e-01 1.286982e+00 8.959072e-03 -1.325885e-01
1.322219e-01 1.337981e+00 1.071988e-02 -1.304605e-01
1.427997e-01 1.384745e+00 1.245843e-02 -1.278369e-01
1.533774e-01 1.430306e+00 1.403316e-02 -1.250901e-01
1.639552e-01 1.472005e+00 1.593057e-02 -1.222895e-01
1.745329e-01 1.502151e+00 1.790917e-02 -1.218140e-01
1.851107e-01 1.523706e+00 2.026735e-02 -1.217089e-01
1.956884e-01 1.540593e+00 2.295729e-02 -1.218485e-01
2.062662e-01 1.551951e+00 3.245775e-02 -1.227611e-01
2.168439e-01 1.524389e+00 4.816785e-02 -1.242338e-01
2.274217e-01 1.482029e+00 6.387953e-02 -1.257305e-01
2.379994e-01 1.426347e+00 7.988658e-02 -1.276968e-01
2.485772e-01 1.377409e+00 9.283357e-02 -1.293172e-01
2.591549e-01 1.338488e+00 1.011927e-01 -1.304209e-01
2.697327e-01 1.311908e+00 1.094412e-01 -1.314244e-01
2.803105e-01 1.289382e+00 1.176428e-01 -1.323808e-01
2.908882e-01 1.266340e+00 1.257530e-01 -1.332372e-01
3.014660e-01 1.238341e+00 1.339717e-01 -1.341680e-01
3.120437e-01 1.204278e+00 1.423228e-01 -1.351899e-01
3.226215e-01 1.187993e+00 1.507166e-01 -1.363119e-01
3.331992e-01 1.175868e+00 1.593254e-01 -1.381458e-01
3.437770e-01 1.162119e+00 1.690924e-01 -1.438726e-01
3.543547e-01 1.149274e+00 1.792652e-01 -1.503028e-01
3.649325e-01 1.138142e+00 1.898438e-01 -1.574386e-01
3.755102e-01 1.127663e+00 2.004224e-01 -1.645750e-01
3.860880e-01 1.117062e+00 2.110992e-01 -1.714815e-01
3.966657e-01 1.108120e+00 2.221686e-01 -1.774687e-01
4.072435e-01 1.099178e+00 2.332380e-01 -1.834565e-01
4.178212e-01 1.090235e+00 2.443074e-01 -1.894463e-01
4.283990e-01 1.082963e+00 2.559868e-01 -1.946091e-01
4.389768e-01 1.075877e+00 2.677339e-01 -1.996798e-01
4.495545e-01 1.068790e+00 2.794810e-01 -2.047505e-01
4.601323e-01 1.062504e+00 2.916234e-01 -2.094431e-01
4.707100e-01 1.056752e+00 3.040293e-01 -2.138837e-01
4.812878e-01 1.050999e+00 3.164352e-01 -2.183242e-01
4.918655e-01 1.045506e+00 3.290203e-01 -2.226333e-01
5.024433e-01 1.040620e+00 3.420237e-01 -2.266361e-01
5.130210e-01 1.035733e+00 3.550270e-01 -2.306389e-01
5.235988e-01 1.030846e+00 3.680304e-01 -2.346416e-01
5.759587e-01 1.009577e+00 4.358184e-01 -2.525541e-01
6.283185e-01 9.891368e-01 5.064711e-01 -2.691900e-01
6.806784e-01 9.674859e-01 5.798437e-01 -2.847966e-01
7.330383e-01 9.423176e-01 6.549190e-01 -2.997086e-01
7.853982e-01 9.158713e-01 7.304211e-01 -3.144276e-01
8.377580e-01 8.822989e-01 8.059045e-01 -3.285462e-01
8.901179e-01 8.445749e-01 8.798593e-01 -3.424097e-01
9.424778e-01 7.985472e-01 9.507569e-01 -3.557629e-01
9.948377e-01 7.525194e-01 1.021654e+00 -3.691159e-01
1.047198e+00 7.064917e-01 1.092550e+00 -3.824688e-01
1.099557e+00 6.446456e-01 1.150276e+00 -3.945682e-01
1.151917e+00 5.827992e-01 1.208002e+00 -4.066675e-01
1.204277e+00 5.209524e-01 1.265728e+00 -4.187667e-01
1.256637e+00 4.516068e-01 1.310015e+00 -4.296537e-01
1.308997e+00 3.785120e-01 1.347584e+00 -4.399347e-01
1.361357e+00 3.054164e-01 1.385152e+00 -4.502151e-01
1.413717e+00 2.310175e-01 1.414484e+00 -4.596503e-01
1.466077e+00 1.540123e-01 1.427343e+00 -4.673951e-01
1.518436e+00 7.700615e-02 1.440201e+00 -4.751396e-01
1.570796e+00 -3.364308e-07 1.453060e+00 -4.828838e-01
1.623156e+00 -5.390410e-02 1.440201e+00 -4.866087e-01
1.675516e+00 -1.078081e-01 1.427343e+00 -4.902520e-01
1.727876e+00 -1.617124e-01 1.414484e+00 -4.938925e-01
1.780236e+00 -2.137916e-01 1.385152e+00 -4.942601e-01
1.832596e+00 -2.649582e-01 1.347584e+00 -4.929912e-01
1.884956e+00 -3.161248e-01 1.310015e+00 -4.918106e-01
1.937315e+00 -3.646666e-01 1.265727e+00 -4.894329e-01
1.989675e+00 -4.079589e-01 1.208002e+00 -4.845562e-01
2.042035e+00 -4.512516e-01 1.150276e+00 -4.796791e-01
2.094395e+00 -4.945443e-01 1.092550e+00 -4.748017e-01
2.146755e+00 -5.267637e-01 1.021654e+00 -4.681663e-01
2.199115e+00 -5.589831e-01 9.507574e-01 -4.615309e-01
2.251475e+00 -5.912023e-01 8.798597e-01 -4.548667e-01
2.303835e+00 -6.159465e-01 8.058984e-01 -4.489995e-01
2.356194e+00 -6.369533e-01 7.304053e-01 -4.435403e-01
2.408554e+00 -6.579597e-01 6.549129e-01 -4.380806e-01
2.460914e+00 -6.769270e-01 5.809292e-01 -4.347631e-01
2.513274e+00 -6.918158e-01 5.099626e-01 -4.357297e-01
2.565634e+00 -7.067044e-01 4.389966e-01 -4.366964e-01
2.617994e+00 -7.215930e-01 3.680308e-01 -4.376631e-01
2.670354e+00 -7.456536e-01 3.104608e-01 -4.590439e-01
2.722714e+00 -7.696771e-01 2.528909e-01 -4.799786e-01
2.775074e+00 -7.936952e-01 1.953210e-01 -5.015856e-01
2.827433e+00 -7.338171e-01 1.570568e-01 -5.071019e-01
2.879793e+00 -6.319823e-01 1.284456e-01 -5.044390e-01
2.932153e+00 -5.301481e-01 9.983409e-02 -5.017756e-01
2.984513e+00 -4.160329e-01 7.268384e-02 -4.500005e-01
3.036873e+00 -2.773550e-01 4.845610e-02 -2.999997e-01
3.089233e+00 -1.380452e-01 3.977995e-02 -7.342450e-02
3.141593e+00 0.000000e+00 3.888966e-02 1.884394e-01
